6.4084
7.6517
8.3641
9.6885
9.7987
8.6029
8.1738
7.0623
4.6761
4.9261
6.3858
7.6331
8.3557
9.6923
9.7875
8.5891
8.165
7.052
4.6746
4.9252
6.4056
7.6443
8.3451
9.6682
9.7763
8.5844
8.1601
7.0262
4.6526
4.9187
6.3905
7.6295
8.3409
9.6629
9.7671
8.5811
8.154
7.0148
4.6491
4.9236
6.3944
7.6292
8.341
9.667
9.7484
8.5606
8.1433
6.9969
4.636
4.9193
6.381
7.6162
8.3313
9.6593
9.7383
8.5519
8.1299
6.9795
4.6268
4.9157
6.3851
7.6178
8.3352
9.6652
9.7249
8.5387
8.1269
6.9609
4.613
4.9176
6.3793
7.6133
8.3321
9.6568
9.7179
8.5316
8.1165
6.9431
4.6011
4.9118
6.3825
7.6142
8.3251
9.6516
9.6942
8.514
8.1028
6.9217
4.579
4.8984
6.3677
7.6016
8.3067
9.6392
9.684
8.4988
8.0856
6.8995
4.5583
4.8889
6.3656
7.5969
8.3042
9.6485
9.6655
8.482
8.0744
6.8823
4.5411
4.8785
6.3626
7.5933
8.2912
9.6344
9.6558
8.4722
8.0768
6.8691
4.5369
4.8836
6.3591
7.5788
8.2979
9.6503
9.6563
8.4715
8.0725
6.8565
4.532
4.8922
6.3729
7.5897
8.3029
9.6522
9.653
8.4653
8.0767
6.843
4.5223
4.8885
6.3746
7.5915
8.3016
9.6565
9.6451
8.457
8.0658
6.8267
4.5126
4.8857
6.3681
7.5858
8.2973
9.6434
9.6322
8.4522
8.061
6.8095
4.4998
4.885
6.3676
7.5846
8.2956
9.6544
9.6298
8.4449
8.0641
6.8078
4.4995
4.8907
6.3867
7.6075
8.3279
9.693
9.657
8.4743
8.0847
6.8209
4.5174
4.9187
6.399
7.6108
8.3275
9.6939
9.6371
8.451
8.0692
6.7902
4.496
4.9126
6.3999
7.6062
8.3184
9.6785
9.6293
8.4489
8.0712
6.7841
4.486
4.9081
6.3852
7.5924
8.3116
9.6848
9.6195
8.4407
8.0627
6.7671
4.4751
4.9055
6.3969
7.6045
8.3179
9.6945
9.6188
8.4218
8.0517
6.7422
4.452
4.8875
6.3828
7.5916
8.31
9.6932
9.6123
8.4268
8.0523
6.7267
4.4449
4.8917
6.3857
7.5942
8.3175
9.6914
9.6106
8.4302
8.0573
6.7309
4.4505
4.9098
6.426
7.6599
8.4137
9.831
9.7836
8.6751
8.3624
7.0821
4.8739
5.4171
6.9512
8.148
8.8337
10.18
10.067
8.8593
8.4491
7.0657
4.7622
5.2154
6.5922
7.5739
7.8836
8.9664
8.753
7.6588
7.4379
6.1877
4.0113
4.5624
6.1229
7.3773
8.1436
9.5631
9.4828
8.3287
7.9844
6.6227
4.3924
4.9073
6.4263
7.647
8.3837
9.7829
9.6556
8.4917
8.1425
6.7572
4.5066
5.0111
6.5146
7.7172
8.4425
9.8292
9.7005
8.5258
8.1651
6.7709
4.5266
5.0482
6.5556
7.7501
8.4771
9.8616
9.7164
8.5403
8.1879
6.7844
4.543
5.0623
6.5678
7.7653
8.4917
9.884
9.7319
8.5651
8.2051
6.7933
4.5635
5.0972
6.6012
7.7963
8.5254
9.9213
9.7467
8.5801
8.2334
6.8154
4.5927
5.1259
6.6383
7.8318
8.5655
9.9656
9.7758
8.6136
8.2671
6.8398
4.6326
5.1759
6.6841
7.8741
8.6101
10.008
9.8319
8.6676
8.332
6.8949
4.693
5.243
6.7539
7.9385
8.6677
10.058
9.8822
8.7223
8.3841
6.9341
4.7294
5.2902
6.7836
7.9692
8.7048
10.106
9.913
8.7473
8.4161
6.9563
4.7685
5.3315
6.8287
8.0041
8.7379
10.123
9.9232
8.7586
8.4087
6.9349
4.7423
5.3214
6.8129
7.986
8.7169
10.097
9.8827
8.7083
8.3702
6.8809
4.6968
5.2661
6.7573
7.9203
8.6459
10.029
9.7996
8.6413
8.3027
6.8166
4.6413
5.2212
6.7139
7.8762
8.6049
9.9867
9.7565
8.5978
8.2632
6.7613
4.5918
5.1862
6.6852
7.8519
8.5843
9.9725
9.7277
8.576
8.2466
6.7345
4.5792
5.1829
6.6825
7.851
8.5836
9.9711
9.7234
8.574
8.2485
6.7341
4.5916
5.2113
6.7135
7.8719
8.5952
9.9823
9.7342
8.5813
8.2558
6.7306
4.5943
5.2222
6.7311
7.9025
8.633
10.019
9.7459
8.604
8.2832
6.7311
4.6075
5.2409
6.7373
7.9026
8.6486
10.055
9.7948
8.6481
8.3137
6.7618
4.6372
5.2653
6.7726
7.9256
8.6646
10.063
9.7903
8.6577
8.3334
6.7694
4.6555
5.2974
6.8096
7.9661
8.7004
10.103
9.8161
8.6645
8.3454
6.7677
4.6478
5.3019
6.8091
7.9691
8.725
10.127
9.8313
8.6866
8.3642
6.7792
4.6746
5.3491
6.8572
7.998
8.7381
10.121
9.8184
8.6869
8.3704
6.7621
4.6759
5.3519
6.8483
8.0032
8.761
10.158
9.843
8.6985
8.3766
6.7646
4.6578
5.3331
6.8556
8.0155
8.7581
10.157
9.8233
8.6796
8.3662
6.7654
4.669
5.3433
6.8505
8.0079
8.7527
10.158
9.8298
8.6816
8.3819
6.7325
4.6428
5.334
6.8415
8.0018
8.7583
10.165
9.8215
8.6679
8.3514
6.7047
4.6221
5.319
6.8438
7.992
8.7506
10.147
9.8048
8.6488
8.3067
6.6338
4.5514
5.2582
6.7993
7.9386
8.6991
10.101
9.7348
8.594
8.2872
6.6092
4.5365
5.2629
6.773
7.9262
8.6901
10.109
9.7323
8.5896
8.2935
6.6338
4.586
5.3057
6.8197
7.9522
8.7154
10.139
9.7586
8.6254
8.3229
6.6298
4.5839
5.3283
6.8666
8.0149
8.7782
10.194
9.8031
8.6601
8.3576
6.6468
4.6041
5.3576
6.8857
8.0399
8.8089
10.231
9.8246
8.679
8.3727
6.6506
4.6152
5.366
6.8917
8.0249
8.7979
10.208
9.8092
8.6741
8.3715
6.6418
4.6107
5.3657
6.8973
8.0266
8.7825
10.189
9.7831
8.6564
8.3592
6.6278
4.6029
5.361
6.8955
8.0258
8.8083
10.216
9.7955
8.6594
8.365
6.6191
4.6153
5.3839
6.9105
8.0444
8.814
10.225
9.7878
8.6707
8.3762
6.6156
4.624
5.4076
6.9368
8.0583
8.834
10.25
9.8092
8.6824
8.3996
6.6299
4.6457
5.4521
6.9794
8.1302
8.9257
10.353
9.9344
8.8451
8.5996
6.889
4.9659
5.8209
7.4438
8.6559
9.4897
10.942
10.52
9.4239
9.1501
7.3465
5.3609
6.1067
7.542
8.4715
8.9682
10.039
9.1504
7.8427
7.5994
5.9495
4.1227
5.0286
6.6293
7.805
8.6368
10.088
9.6627
8.595
8.3453
6.5601
4.6171
5.4368
6.9816
8.1208
8.9165
10.331
9.8647
8.775
8.4917
6.6884
4.7494
5.573
7.105
8.2373
9.0286
10.435
9.9489
8.8402
8.5558
6.7258
4.7936
5.6113
7.1327
8.2503
9.0432
10.45
9.96
8.8657
8.5802
6.7416
4.8244
5.6565
7.1779
8.2798
9.0724
10.465
9.9708
8.8787
8.5916
6.743
4.8436
5.688
7.2116
8.3238
9.1165
10.52
10.001
8.9076
8.6159
6.7666
4.8722
5.7263
7.2551
8.369
9.1764
10.563
10.027
8.9371
8.6628
6.811
4.9244
5.7837
7.3274
8.4251
9.2241
10.618
10.105
9.0272
8.7525
6.8796
4.9932
5.8523
7.3766
8.4961
9.3184
10.712
10.162
9.0772
8.7856
6.9046
5.0441
5.9385
7.4795
8.5746
9.3672
10.768
10.224
9.1294
8.8395
6.9376
5.0921
5.9651
7.4959
8.5912
9.3832
10.77
10.224
9.1346
8.8523
6.9375
5.0835
5.9767
7.502
8.5979
9.4043
10.791
10.214
9.1169
8.8359
6.8965
5.0502
5.9285
7.462
8.5473
9.3472
10.715
10.127
9.0333
8.743
6.8052
4.9768
5.8763
7.3944
8.4968
9.2872
10.654
10.059
8.9692
8.6729
6.7218
4.8966
5.8084
7.3447
8.4412
9.2402
10.618
10.029
8.9279
8.6298
6.6706
4.8564
5.7718
7.3097
8.4077
9.2121
10.587
9.9972
8.9142
8.6269
6.6575
4.8464
5.7643
7.3036
8.3944
9.2172
10.594
9.9975
8.9188
8.619
6.6433
4.8484
5.7856
7.3335
8.4136
9.2134
10.579
9.9778
8.8973
8.6127
6.6199
4.8341
5.7726
7.3277
8.4202
9.2339
10.603
10.002
8.9192
8.6219
6.6053
4.8244
5.7685
7.311
8.3951
9.2187
10.6
9.9897
8.9181
8.6166
6.5884
4.8054
5.7504
7.2895
8.377
9.224
10.613
9.9656
8.8947
8.6062
6.584
4.8032
5.7621
7.2964
8.3749
9.213
10.592
9.9485
8.8768
8.6022
6.5446
4.774
5.7347
7.2805
8.361
9.2128
10.584
9.9483
8.8594
8.5711
6.5067
4.7418
5.7135
7.2884
8.3458
9.1901
10.571
9.9248
8.8756
8.5717
6.4783
4.7437
5.7204
7.244
8.3271
9.1819
10.562
9.9065
8.8417
8.551
6.4579
4.706
5.6772
7.2255
8.3075
9.174
10.564
9.8881
8.8201
8.5247
6.4228
4.6766
5.6686
7.2238
8.3096
9.1709
10.546
9.8725
8.814
8.5088
6.3888
4.6498
5.6499
7.2122
8.2908
9.1504
10.533
9.8582
8.7891
8.5047
6.3738
4.6512
5.6468
7.1956
8.2763
9.1499
10.538
9.8514
8.7876
8.4834
6.3482
4.6293
5.628
7.1907
8.2705
9.1422
10.52
9.8346
8.774
8.4742
6.3249
4.6185
5.6259
7.1916
8.2724
9.1523
10.539
9.8413
8.7873
8.4874
6.3373
4.618
5.6226
7.1745
8.2608
9.1562
10.541
9.8339
8.7767
8.4771
6.2982
4.6
5.6219
7.1766
8.2509
9.1346
10.508
9.7956
8.7476
8.4398
6.2715
4.5821
5.6014
7.1441
8.23
9.1309
10.52
9.7815
8.7168
8.4192
6.2304
4.5705
5.5948
7.1485
8.2209
9.1166
10.493
9.7534
8.7003
8.4051
6.2195
4.5532
5.5737
7.1358
8.2046
9.0933
10.462
9.7344
8.6952
8.3857
6.1936
4.5434
5.5678
7.1211
8.1959
9.0961
10.455
9.7154
8.6791
8.3664
6.1692
4.5256
5.5578
7.116
8.1827
9.0818
10.438
9.7115
8.7021
8.4306
6.2582
4.6629
5.7322
7.3511
8.4728
9.4432
10.887
10.233
9.2637
8.9908
6.7945
5.1921
6.2328
7.7515
8.7795
9.6387
10.899
9.9582
8.6482
8.014
5.3749
3.5573
4.6319
6.3369
7.531
8.5413
9.9707
9.2911
8.3339
8.0804
5.8895
4.3371
5.4167
6.9762
8.0282
8.9511
10.309
9.5588
8.5689
8.2806
6.0693
4.5043
5.5613
7.1039
8.1543
9.0586
10.394
9.6329
8.629
8.327
6.1054
4.5474
5.5959
7.1229
8.1676
9.0793
10.408
9.6406
8.6357
8.3295
6.1071
4.5672
5.6187
7.1366
8.1691
9.0763
10.394
9.6315
8.6344
8.3315
6.1061
4.5748
5.6278
7.1487
8.1786
9.0905
10.406
9.639
8.6548
8.3432
6.1163
4.6032
5.6631
7.1749
8.1991
9.1212
10.431
9.6492
8.6725
8.3677
6.1291
4.6385
5.7038
7.2135
8.2396
9.1572
10.461
9.6928
8.7205
8.4081
6.1765
4.6904
5.7583
7.2701
8.2934
9.2219
10.517
9.7295
8.7683
8.4585
6.221
4.7475
5.8093
7.3126
8.3292
9.2566
10.542
9.7616
8.7961
8.4818
6.2438
4.7869
5.8635
7.3592
8.3678
9.2871
10.567
9.7691
8.8065
8.4854
6.2452
4.8077
5.8726
7.3611
8.3593
9.2739
10.546
9.748
8.7865
8.4648
6.2233
4.791
5.8512
7.3304
8.3171
9.2259
10.471
9.6731
8.7288
8.3973
6.15
4.7428
5.8018
7.2698
8.2477
9.1543
10.393
9.5923
8.6456
8.3198
6.0878
4.6962
5.7504
7.2041
8.1766
9.0849
10.312
9.5133
8.5889
8.2664
6.0493
4.6824
5.7263
7.16
8.127
9.0414
10.258
9.4658
8.552
8.2338
6.0328
4.6867
5.7359
7.1591
8.1207
9.0333
10.235
9.4361
8.5312
8.2216
6.0312
4.7052
5.7502
7.1786
8.1308
9.0284
10.222
9.4309
8.5349
8.2201
6.0175
4.7126
5.7614
7.2004
8.1436
9.0327
10.215
9.4261
8.5475
8.2249
6.0166
4.7186
5.7696
7.1968
8.1438
9.0413
10.23
9.4285
8.5375
8.2096
6.0083
4.7311
5.7895
7.2109
8.1506
9.0612
10.236
9.4242
8.5433
8.2241
6.0228
4.7454
5.8011
7.2138
8.1507
9.0637
10.235
9.4279
8.5464
8.2175
6.0046
4.7533
5.8158
7.2275
8.1596
9.073
10.233
9.4141
8.5434
8.2227
6.0044
4.7594
5.8208
7.2218
8.154
9.0734
10.231
9.4174
8.5518
8.2219
6.0007
4.772
5.8334
7.2271
8.154
9.075
10.221
9.4023
8.5403
8.2081
5.9935
4.7748
5.8413
7.2436
8.166
9.082
10.227
9.3971
8.543
8.2078
5.9902
4.7854
5.8573
7.2476
8.1677
9.0941
10.23
9.3986
8.5505
8.2227
6.006
4.811
5.881
7.2698
8.1751
9.0823
10.203
9.3868
8.5404
8.2018
5.9882
4.8202
5.8908
7.2755
8.1811
9.103
10.215
9.3774
8.544
8.205
5.9962
4.8383
5.9065
7.2821
8.1844
9.1037
10.209
9.371
8.5323
8.1921
5.9788
4.8406
5.9157
7.2936
8.1956
9.1116
10.202
9.3702
8.5429
8.203
5.9959
4.8685
5.9397
7.3068
8.1991
9.1137
10.193
9.3468
8.5239
8.1775
5.9651
4.8521
5.9225
7.2899
8.1718
9.0892
10.175
9.3338
8.5111
8.1624
5.9451
4.8362
5.9132
7.2749
8.1617
9.0823
10.153
9.3092
8.4987
8.153
5.9338
4.8356
5.9132
7.2641
8.1423
9.0694
10.134
9.287
8.4769
8.1258
5.9066
4.8272
5.9074
7.25
8.1313
9.0654
10.124
9.2738
8.4649
8.113
5.9013
4.8319
5.9154
7.2694
8.1366
9.0603
10.119
9.2697
8.4756
8.121
5.9011
4.8471
5.9288
7.2761
8.1504
9.0851
10.138
9.3039
8.5343
8.2095
6.0363
5.0597
6.1995
7.6035
8.5421
9.5601
10.682
9.8808
9.1137
8.7595
6.571
5.5404
6.5943
7.9052
8.7038
9.5544
10.393
9.2836
8.1547
7.3871
5.0427
4.1031
5.3276
6.7758
7.7179
8.7083
9.768
8.9767
8.2641
7.9533
5.8287
4.8908
5.981
7.2914
8.1321
9.0527
10.048
9.2158
8.4834
8.1424
5.9952
5.039
6.1019
7.4056
8.2383
9.1514
10.133
9.2941
8.5557
8.2027
6.044
5.0956
6.1691
7.4554
8.2833
9.1939
10.161
9.3137
8.5693
8.2176
6.0751
5.1424
6.2022
7.4828
8.2936
9.1983
10.16
9.3164
8.586
8.23
6.0847
5.168
6.2251
7.5031
8.3142
9.2181
10.177
9.3345
8.6083
8.2455
6.1034
5.1962
6.2568
7.5382
8.3478
9.2656
10.213
9.3658
8.6415
8.2864
6.1381
5.2405
6.3042
7.5879
8.3976
9.3038
10.248
9.4058
8.6869
8.3213
6.1721
5.2857
6.3618
7.6417
8.4542
9.3737
10.31
9.4495
8.7263
8.3601
6.1936
5.3184
6.4025
7.6936
8.5062
9.4351
10.378
9.5114
8.7926
8.4115
6.2016
5.3093
6.4103
7.7119
8.527
9.4666
10.419
9.5425
8.8103
8.4165
6.1525
5.2447
6.3603
7.6844
8.5241
9.4866
10.459
9.5564
8.8045
8.3957
6.0926
5.1632
6.2874
7.631
8.4784
9.4537
10.428
9.4992
8.7347
8.3174
5.9876
5.0669
6.2068
7.5556
8.4008
9.3786
10.35
9.4199
8.6636
8.2404
5.9001
4.9844
6.1298
7.4851
8.3337
9.3218
10.292
9.358
8.603
8.1821
5.8361
4.9263
6.0781
7.4303
8.2822
9.2855
10.259
9.326
8.5661
8.1466
5.8132
4.9173
6.0656
7.4201
8.2701
9.2742
10.246
9.3153
8.5661
8.1444
5.8126
4.9184
6.0667
7.4145
8.2657
9.2783
10.243
9.3163
8.5698
8.1468
5.8286
4.9476
6.0807
7.4215
8.2704
9.2669
10.219
9.3082
8.572
8.146
5.8528
4.9739
6.0885
7.4121
8.2586
9.2449
10.186
9.297
8.5694
8.1492
5.9075
5.0264
6.0893
7.3799
8.2119
9.1818
10.107
9.2746
8.5787
8.1636
5.9941
5.1384
6.1338
7.3626
8.1704
9.1125
10.007
9.2172
8.5634
8.1571
6.0568
5.2562
6.2202
7.3929
8.1471
9.0361
9.846
9.0641
8.461
8.0836
6.1048
5.4072
6.3569
7.4656
8.1712
9.0085
9.7696
9.011
8.4224
8.0471
6.1237
5.4516
6.3874
7.4846
8.1678
8.9917
9.7417
8.9894
8.43
8.0619
6.1656
5.5236
6.4582
7.5431
8.2246
9.0397
9.7712
9.0339
8.4804
8.1157
6.2519
5.6332
6.5597
7.6299
8.3108
9.1417
9.8697
9.1439
8.6146
8.2648
6.4269
5.846
6.7752
7.8511
8.5359
9.3578
10.067
9.3506
8.8279
8.4645
6.6431
6.0521
6.9498
7.9817
8.6409
9.4497
10.142
9.4237
8.9031
8.5467
6.7374
6.1683
7.0663
8.0906
8.7312
9.5107
10.176
9.4505
8.9251
8.5585
6.7639
6.1998
7.0808
8.0749
8.6831
9.4426
10.085
9.352
8.8192
8.4333
6.6226
6.0581
6.9175
7.8857
8.4867
9.2407
9.8747
9.148
8.6131
8.2244
6.4286
5.8686
6.7348
7.7143
8.3169
9.08
9.7044
8.9675
8.4533
8.07
6.2732
5.7224
6.5768
7.5516
8.1505
8.8999
9.522
8.803
8.2925
7.9026
6.1089
5.5691
6.4339
7.4057
8.0189
8.7948
9.413
8.693
8.192
7.8174
6.0421
5.5117
6.3805
7.3578
7.9694
8.7488
9.3795
8.6492
8.1436
7.7531
5.9662
5.4462
6.3354
7.3306
7.9465
8.7378
9.3631
8.637
8.1456
7.7779
6.0146
5.5234
6.4501
7.4972
8.1709
9.0224
9.7448
9.1142
8.6619
8.2738
6.4485
5.9156
6.7965
7.757
8.3323
9.0345
9.6045
8.7664
8.0633
7.299
5.0671
4.352
5.2629
6.4004
7.1655
8.0732
8.7775
8.0944
7.6378
7.2643
5.4509
4.9418
5.8655
6.903
7.5284
8.3758
9.0843
8.4191
7.9709
7.5841
5.7541
5.2593
6.1814
7.215
7.8731
8.713
9.3689
8.6302
8.134
7.7211
5.8695
5.3694
6.2906
7.3201
7.9599
8.8023
9.4392
8.6904
8.2063
7.7861
5.9258
5.4285
6.3473
7.3729
8.0002
8.8361
9.4702
8.724
8.2427
7.825
5.971
5.4766
6.4005
7.4149
8.0496
8.89
9.5151
8.7735
8.2866
7.8499
5.9863
5.4995
6.4252
7.4589
8.1038
8.9518
9.5754
8.8314
8.3516
7.9318
6.07
5.5944
6.5202
7.5494
8.1897
9.0403
9.6623
8.9178
8.4312
7.9941
6.1325
5.6581
6.5887
7.6103
8.2442
9.0984
9.7141
8.9651
8.4932
8.0517
6.183
5.7227
6.6537
7.6771
8.319
9.1701
9.7837
9.0298
8.554
8.1041
6.2303
5.7702
6.7025
7.7255
8.3578
9.2137
9.8244
9.0594
8.5808
8.1259
6.2435
5.7847
6.7155
7.731
8.3638
9.2104
9.8073
9.0386
8.556
8.0968
6.2139
5.7608
6.6902
7.7042
8.3371
9.1873
9.7832
9.0107
8.5236
8.0572
6.1704
5.7171
6.6397
7.6465
8.2722
9.1292
9.7114
8.9377
8.4613
7.9918
6.1074
5.6642
6.5875
7.5944
8.2209
9.0818
9.663
8.8926
8.4161
7.9487
6.0658
5.6393
6.575
7.589
8.2151
9.0818
9.6611
8.8937
8.422
7.9419
6.0587
5.6388
6.5692
7.5763
8.2069
9.077
9.653
8.8834
8.4171
7.9447
6.0654
5.6488
6.5786
7.5898
8.2192
9.0983
9.6694
8.8986
8.4311
7.9452
6.07
5.6693
6.6096
7.6171
8.2463
9.1184
9.6866
8.9218
8.4607
7.9847
6.1088
5.7074
6.654
7.6685
8.2954
9.1701
9.7372
8.973
8.5247
8.0495
6.1861
5.8021
6.7474
7.7666
8.4025
9.2841
9.8466
9.0955
8.6548
8.1833
6.3382
5.9762
6.9269
7.934
8.557
9.4305
9.973
9.2144
8.7691
8.273
6.4265
6.0507
6.9813
7.9708
8.5794
9.4519
9.9856
9.2271
8.78
8.2843
6.4455
6.084
7.0128
8.0005
8.6041
9.469
10
9.2419
8.7983
8.2976
6.4606
6.1024
7.0339
8.0308
8.6317
9.498
10.036
9.2929
8.8619
8.3747
6.5536
6.2117
7.1487
8.1492
8.7561
9.6142
10.113
9.3389
8.8899
8.3688
6.5293
6.166
7.0556
8.0025
8.5718
9.4042
9.8794
9.0946
8.6354
8.1027
6.2504
5.8828
6.7665
7.6957
8.2454
9.076
9.5529
8.7586
8.2972
7.7534
5.882
5.5248
6.4292
7.3859
7.9747
8.8538
9.3615
8.5956
8.1682
7.6634
5.8124
5.4985
6.457
7.4575
8.0717
8.9673
9.4748
8.6947
8.2564
7.7302
5.8513
5.5259
6.4885
7.5015
8.1251
9.0411
9.5688
8.7862
8.3454
7.8115
5.9132
5.5876
6.5559
7.5695
8.1956
9.1199
9.6379
8.8441
8.4072
7.871
5.9589
5.6359
6.6103
7.6291
8.2602
9.1926
9.7047
8.9137
8.4785
7.9386
6.0391
5.7393
6.719
7.7401
8.3813
9.3358
9.8605
9.0772
8.6583
8.1224
6.225
5.9409
6.9383
7.9753
8.6313
9.622
10.19
9.4493
9.0503
8.5155
6.614
6.3161
7.2873
8.2905
8.8938
9.8011
10.28
9.4639
9.0105
8.4377
6.5334
6.2428
7.227
8.2678
8.9264
9.8884
10.413
9.661
9.2981
8.8082
6.9228
6.623
7.5853
8.5784
9.1913
10.096
10.539
9.6476
9.145
8.4531
6.3566
5.7341
6.3229
7.1249
7.7266
8.7536
9.3457
8.6138
8.2418
7.7064
5.803
5.5542
6.5878
7.6415
8.2809
9.2385
9.7174
8.8932
8.4606
7.8707
5.9219
5.6529
6.6731
7.7131
8.3436
9.2988
9.7795
8.9398
8.4853
7.8586
5.839
5.5621
6.5974
7.6504
8.284
9.2632
9.7381
8.8599
8.4008
7.7548
5.7062
5.4272
6.4682
7.5275
8.1569
9.1421
9.6089
8.702
8.2207
7.5471
5.4428
5.143
6.1904
7.2511
7.874
8.8659
9.3767
8.5622
8.1962
7.6032
5.5356
5.2981
6.41
7.5368
8.2237
9.2928
9.8054
8.906
8.457
7.7873
5.6471
5.413
6.5596
7.709
8.4015
9.4746
9.9689
9.0537
8.5956
7.9118
5.7537
5.5178
6.662
7.8094
8.4992
9.5843
10.072
9.1432
8.6707
7.9786
5.821
5.594
6.7387
7.8828
8.5648
9.6392
10.12
9.1858
8.7256
8.019
5.8589
5.6304
6.7698
7.9046
8.587
9.6625
10.135
9.2018
8.73
8.023
5.8551
5.6256
6.7687
7.8983
8.5739
9.6518
10.114
9.1643
8.7037
7.9884
5.8174
5.5933
6.7352
7.8675
8.5433
9.6208
10.083
9.1423
8.6785
7.9549
5.7769
5.5648
6.7089
7.8428
8.5229
9.6051
10.061
9.1172
8.6529
7.9164
5.7342
5.5272
6.6712
7.806
8.4872
9.5803
10.03
9.0798
8.6145
7.8762
5.6884
5.4836
6.6399
7.7781
8.4599
9.5567
10.006
9.0566
8.5973
7.8442
5.6521
5.4611
6.6186
7.7612
8.4468
9.5443
9.9882
9.0396
8.587
7.8352
5.6453
5.4568
6.62
7.7658
8.4527
9.5536
9.9883
9.0452
8.5935
7.839
5.6565
5.4832
6.6374
7.7753
8.4535
9.5477
9.9739
9.0328
8.5838
7.8216
5.6623
5.5022
6.6607
7.7845
8.453
9.5372
9.9574
9.0196
8.5781
7.8093
5.6461
5.4924
6.6462
7.7749
8.4477
9.5402
9.9532
9.0109
8.5684
7.8026
5.6435
5.4933
6.6563
7.7803
8.448
9.5437
9.9516
9.0128
8.571
7.7925
5.6474
5.5068
6.6627
7.786
8.4524
9.5484
9.9458
9.0046
8.5755
7.7997
5.6507
5.5185
6.6736
7.7973
8.4689
9.5671
9.9521
9.02
8.5863
7.8079
5.6633
5.5339
6.684
7.8014
8.4711
9.5736
9.9585
9.0179
8.5854
7.7909
5.6402
5.513
6.6681
7.7872
8.456
9.5681
9.9537
9.0032
8.5719
7.7703
5.6006
5.4754
6.6311
7.7563
8.4383
9.5646
9.9491
8.9944
8.5539
7.7395
5.5579
5.4332
6.6064
7.7335
8.4176
9.5591
9.9411
8.9858
8.5544
7.7286
5.5387
5.4279
6.6036
7.7403
8.4286
9.5712
9.9487
8.9867
8.5497
7.7132
5.5076
5.3939
6.576
7.7107
8.3967
9.5521
9.9181
8.9517
8.5229
7.6723
5.4672
5.3698
6.5549
7.6911
8.3867
9.5552
9.9277
8.9614
8.5287
7.675
5.4672
5.3778
6.5731
7.7122
8.4016
9.5697
9.9296
8.9569
8.5276
7.6678
5.4545
5.3708
6.5695
7.7134
8.4097
9.5836
9.9393
8.9675
8.5347
7.6662
5.4515
5.3748
6.5836
7.7337
8.4292
9.6094
9.95
8.9707
8.558
7.6725
5.4517
5.391
6.5993
7.7496
8.4536
9.6394
9.9722
9.0001
8.5876
7.6956
5.485
5.4472
6.6865
7.8654
8.6089
9.8556
10.245
9.3257
8.9788
8.1683
6.033
6.0061
7.2182
8.3577
9.0506
10.239
10.53
9.5208
9.0332
8.0593
5.7021
5.4529
6.3008
7.0728
7.6283
8.8693
9.328
8.473
8.1596
7.3207
5.1588
5.1758
6.4334
7.6193
8.3547
9.5899
9.9257
8.9551
8.5592
7.6621
5.4619
5.4455
6.6765
7.8419
8.5588
9.7787
10.086
9.1071
8.696
7.7703
5.5519
5.5304
6.7534
7.9071
8.6081
9.8147
10.121
9.141
8.7331
7.7974
5.5752
5.5545
6.7768
7.9276
8.6308
9.8407
10.141
9.1614
8.7474
7.8081
5.587
5.5741
6.801
7.9485
8.6539
9.8686
10.158
9.1756
8.7763
7.83
5.6106
5.6103
6.8398
7.9897
8.6913
9.9079
10.194
9.216
8.8115
7.8564
5.648
5.6565
6.8843
8.0275
8.7335
9.9569
10.24
9.2555
8.8554
7.8917
5.6879
5.7033
6.9328
8.0843
8.7908
10.01
10.281
9.3028
8.9093
7.9347
5.7405
5.7667
6.9955
8.1415
8.8454
10.065
10.322
9.3357
8.9401
7.9632
5.7852
5.8358
7.0627
8.1884
8.8683
10.067
10.299
9.3261
8.9405
7.9693
5.8182
5.8668
7.0709
8.1795
8.8603
10.057
10.274
9.3019
8.9143
7.9363
5.7905
5.8434
7.0374
8.132
8.8051
9.9934
10.198
9.2303
8.8509
7.8599
5.7162
5.7699
6.9674
8.0594
8.7296
9.9209
10.125
9.1521
8.7699
7.771
5.6356
5.6986
6.8951
7.9886
8.6604
9.8576
10.058
9.0867
8.7112
7.7062
5.5695
5.6439
6.8424
7.9425
8.6227
9.8271
10.021
9.0507
8.6776
7.6647
5.5345
5.616
6.8248
7.926
8.6038
9.808
10.004
9.0354
8.6651
7.6494
5.5197
5.6159
6.8225
7.9216
8.601
9.8098
10.004
9.032
8.6704
7.6461
5.5136
5.618
6.8354
7.9372
8.6145
9.8274
10.007
9.0381
8.6747
7.6333
5.5053
5.6163
6.839
7.948
8.6288
9.8422
10.016
9.0439
8.6783
7.6288
5.4921
5.6094
6.8399
7.9418
8.6298
9.8611
10.018
9.0424
8.6804
7.6185
5.4694
5.5889
6.8175
7.9318
8.6317
9.8887
10.052
9.0553
8.6862
7.5982
5.4161
5.5419
6.7945
7.9261
8.6317
9.8944
10.047
9.0524
8.684
7.5824
5.3963
5.5317
6.7848
7.9175
8.6248
9.8955
10.039
9.0365
8.6717
7.5582
5.3861
5.5247
6.7789
7.916
8.6189
9.8834
10.026
9.0284
8.6609
7.5399
5.3562
5.5058
6.7602
7.8902
8.604
9.881
10.017
9.0134
8.6443
7.5212
5.341
5.5009
6.7618
7.8945
8.6066
9.8806
10.016
9.013
8.6475
7.5104
5.3352
5.4981
6.7678
7.8977
8.609
9.8861
10.014
9.0119
8.658
7.5144
5.3379
5.5123
6.7778
7.9066
8.6194
9.9063
10.023
9.0205
8.6631
7.5113
5.3389
5.5074
6.7718
7.8932
8.6083
9.8816
9.9976
9.004
8.6393
7.4835
5.3087
5.4867
6.7516
7.8734
8.5831
9.8666
9.9721
8.9709
8.62
7.4547
5.2926
5.4823
6.7483
7.8688
8.5829
9.8693
9.9629
8.9596
8.6025
7.4315
5.2692
5.4693
6.7334
7.854
8.5631
9.8483
9.9368
8.9389
8.5867
7.4089
5.2727
5.4786
6.7409
7.8599
8.5682
9.8396
9.9121
8.9163
8.5677
7.3931
5.2894
5.5172
6.7644
7.8674
8.5634
9.8219
9.881
8.9016
8.5716
7.4029
5.3168
5.55
6.8125
7.9254
8.6448
9.9402
10.059
9.1451
8.8698
7.7686
5.7927
6.1066
7.3688
8.4682
9.1626
10.415
10.483
9.4974
9.1297
7.882
5.7499
5.8343
6.838
7.4949
7.831
8.9541
9.0639
8.2366
8.0296
6.9363
4.9466
5.2401
6.5118
7.6329
8.3575
9.6294
9.6982
8.7631
8.4516
7.2787
5.2448
5.5052
6.7595
7.8524
8.5468
9.8071
9.8649
8.9115
8.5981
7.4032
5.3617
5.6185
6.8562
7.9311
8.6167
9.8638
9.8996
8.9459
8.6334
7.4272
5.3885
5.6466
6.8886
7.964
8.6473
9.8893
9.9228
8.968
8.6545
7.4448
5.4101
5.6698
6.9019
7.9757
8.6693
9.9186
9.9481
8.9921
8.6767
7.4614
5.4331
5.701
6.942
8.0142
8.7036
9.9558
9.9749
9.0228
8.7154
7.4922
5.4653
5.7454
6.9832
8.054
8.7451
9.9984
10.012
9.0622
8.7561
7.5294
5.5082
5.794
7.0337
8.1015
8.7988
10.061
10.069
9.113
8.8111
7.5814
5.5681
5.8544
7.095
8.1641
8.8568
10.109
10.112
9.1656
8.8608
7.6164
5.6042
5.9003
7.1333
8.196
8.8868
10.139
10.132
9.1853
8.8794
7.6331
5.6258
5.9213
7.1548
8.2109
8.8949
10.144
10.124
9.172
8.8643
7.6071
5.6019
5.9035
7.134
8.1833
8.8644
10.105
10.075
9.1221
8.8173
7.5537
5.552
5.8538
7.0777
8.123
8.8023
10.045
10.001
9.0532
8.7514
7.4818
5.4933
5.8008
7.0143
8.0588
8.7422
9.9907
9.9471
9.0043
8.6995
7.424
5.4427
5.7588
6.9871
8.0282
8.7128
9.9612
9.9133
8.9669
8.6756
7.3925
5.4196
5.7443
6.9738
8.021
8.7065
9.9499
9.9019
8.961
8.664
7.3781
5.4154
5.7448
6.9789
8.0248
8.7109
9.9527
9.9003
8.9596
8.667
7.3716
5.4202
5.7596
6.9925
8.033
8.7135
9.9499
9.8959
8.9649
8.6766
7.3766
5.4275
5.7678
6.9965
8.0335
8.7238
9.9657
9.8986
8.963
8.6785
7.3795
5.4395
5.7905
7.018
8.0487
8.7341
9.965
9.8918
8.9705
8.677
7.3691
5.4441
5.8007
7.0271
8.0554
8.7403
9.974
9.8937
8.9691
8.6847
7.3759
5.4601
5.8173
7.0389
8.0663
8.749
9.986
9.8886
8.9691
8.6853
7.3681
5.4615
5.8224
7.045
8.0658
8.7521
9.9845
9.886
8.9629
8.6849
7.3575
5.456
5.8319
7.0471
8.0694
8.7534
9.9895
9.8816
8.9613
8.6808
7.3531
5.4601
5.8366
7.0574
8.0741
8.7559
9.9895
9.8773
8.9563
8.679
7.3428
5.4554
5.843
7.063
8.0805
8.7622
9.9905
9.8751
8.9567
8.6804
7.3371
5.4571
5.8469
7.0674
8.0783
8.7636
9.9944
9.8724
8.9597
8.6891
7.3423
5.4681
5.8649
7.0787
8.0907
8.7788
10.018
9.8946
8.9724
8.7017
7.3507
5.4894
5.89
7.1046
8.1112
8.7934
10.02
9.8869
8.9786
8.7054
7.3493
5.5014
5.9116
7.1173
8.1196
8.8082
10.03
9.887
8.9817
8.7181
7.3713
5.5425
5.9548
7.1641
8.1608
8.8413
10.056
9.9065
9.0101
8.7452
7.3942
5.5915
6.0097
7.1992
8.1805
8.8465
10.039
9.8847
8.9891
8.7267
7.3868
5.5944
6.0052
7.1929
8.1673
8.8386
10.039
9.871
8.987
8.7274
7.3842
5.5999
6.0209
7.1992
8.1763
8.8494
10.046
9.8823
8.9942
8.732
7.3799
5.6017
6.0251
7.2061
8.1775
8.852
10.044
9.8751
8.9967
8.7373
7.3806
5.6035
6.0379
7.2163
8.1888
8.8627
10.054
9.8826
9.0023
8.7426
7.3839
5.622
6.0599
7.2367
8.2042
8.8757
10.072
9.8871
9.0093
8.7563
7.3874
5.6324
6.0762
7.2612
8.2268
8.9091
10.125
9.9686
9.1277
8.9182
7.6032
5.9223
6.4324
7.6762
8.7251
9.4552
10.653
10.444
9.5514
9.2885
7.8722
6.0807
6.5153
7.6574
8.5682
9.0804
10.043
9.4444
8.2278
7.8794
6.5709
4.9799
5.5574
6.8357
7.8696
8.6128
9.873
9.7126
8.8723
8.6639
7.2901
5.5605
6.04
7.2419
8.2306
8.9356
10.155
9.9632
9.0971
8.8499
7.4404
5.7057
6.1689
7.3634
8.3297
9.0163
10.222
10.013
9.1432
8.8973
7.4708
5.7279
6.2005
7.39
8.3625
9.0527
10.268
10.05
9.1753
8.9226
7.4814
5.7395
6.2195
7.4174
8.3954
9.0913
10.304
10.08
9.2062
8.9578
7.5102
5.7645
6.2551
7.46
8.4399
9.1369
10.355
10.128
9.247
9.0002
7.5445
5.797
6.2905
7.5022
8.4773
9.185
10.409
10.172
9.293
9.0388
7.57
5.8232
6.332
7.548
8.5195
9.2142
10.431
10.186
9.3003
9.0558
7.6017
5.8543
6.3593
7.5889
8.5714
9.2562
10.475
10.233
9.3513
9.1053
7.6483
5.907
6.4174
7.6483
8.6247
9.3122
10.522
10.281
9.4022
9.1548
7.7008
5.976
6.4911
7.7156
8.6689
9.346
10.531
10.266
9.3942
9.1444
7.7014
6.0123
6.5327
7.7426
8.6858
9.3438
10.508
10.24
9.378
9.1372
7.7143
6.0786
6.5808
7.7439
8.6502
9.2854
10.402
10.124
9.2808
9.0367
7.6323
6.0329
6.5332
7.6714
8.5531
9.1697
10.263
9.9955
9.1779
8.9421
7.5612
5.9971
6.491
7.6118
8.4745
9.0856
10.163
9.8812
9.08
8.8553
7.4904
5.9631
6.4579
7.5559
8.4043
9.0124
10.08
9.8145
9.0265
8.8077
7.4626
5.9619
6.4613
7.5605
8.3997
9.0074
10.061
9.7891
9.0233
8.8103
7.4632
5.9908
6.4926
7.5734
8.4009
8.9984
10.04
9.766
9.0075
8.7951
7.4544
6.0114
6.5075
7.572
8.3961
8.9989
10.032
9.7469
8.9982
8.7901
7.4484
6.0294
6.5324
7.5872
8.3968
8.9938
10.019
9.7395
8.9973
8.7886
7.454
6.0493
6.5463
7.5825
8.3838
8.9887
10.014
9.7205
8.9795
8.7784
7.4476
6.0544
6.5548
7.5877
8.3871
8.9858
9.9938
9.7058
8.9747
8.7669
7.4369
6.0588
6.5597
7.585
8.3787
8.9755
9.9859
9.685
8.9581
8.7567
7.4242
6.0606
6.5655
7.5842
8.3755
8.9739
9.9787
9.6777
8.9544
8.7509
7.4153
6.0603
6.5713
7.5919
8.3796
8.9865
9.9904
9.6826
8.961
8.7558
7.4104
6.0582
6.5705
7.5946
8.379
8.9805
9.9889
9.6806
8.956
8.7559
7.4005
6.0493
6.5661
7.594
8.3863
8.9963
10.003
9.6808
8.9622
8.7592
7.3928
6.0407
6.5692
7.5998
8.3904
8.9983
10.01
9.6894
8.9667
8.7658
7.3888
6.0383
6.5665
7.5999
8.3943
9.0052
10.017
9.6874
8.9709
8.7683
7.3847
6.0361
6.5666
7.5939
8.3893
9.0115
10.026
9.6952
8.9709
8.7697
7.3888
6.0427
6.5762
7.6081
8.3989
9.0143
10.024
9.6888
8.9691
8.7683
7.3759
6.0416
6.5824
7.6117
8.402
9.0172
10.026
9.6902
8.9744
8.7724
7.3807
6.0441
6.5868
7.6146
8.4051
9.0251
10.032
9.6932
8.9798
8.7815
7.3854
6.0621
6.6062
7.6362
8.4194
9.0373
10.044
9.7006
8.9872
8.7843
7.3771
6.0548
6.6029
7.6265
8.4064
9.0271
10.032
9.6795
8.9662
8.766
7.3496
6.0389
6.5921
7.6212
8.4093
9.0354
10.037
9.6857
8.9755
8.7712
7.346
6.0285
6.5913
7.6264
8.4129
9.0376
10.042
9.6868
8.9802
8.7782
7.3453
6.0423
6.6083
7.6395
8.4206
9.0559
10.061
9.6946
8.9887
8.7801
7.3508
6.0529
6.6186
7.6466
8.4332
9.0669
10.073
9.7047
8.9956
8.7939
7.357
6.0577
6.6265
7.6619
8.4461
9.0754
10.079
9.7078
9.0061
8.8043
7.365
6.0802
6.6747
7.7311
8.5403
9.2226
10.289
9.9718
9.3217
9.1817
7.8062
6.5808
7.1676
8.1782
8.9313
9.5515
10.522
10.093
9.3708
9.1328
7.6461
6.2306
6.6215
7.3067
7.7063
8.1922
9.2261
8.9934
8.426
8.3291
6.9472
5.7348
6.3789
7.4584
8.2804
8.9637
9.9976
9.624
8.9389
8.7562
7.3126
6.0557
6.6621
7.7134
8.504
9.1557
10.17
9.7809
9.0786
8.8775
7.4051
6.1341
6.7269
7.7698
8.5574
9.2066
10.217
9.8267
9.122
8.9142
7.4323
6.1608
6.7635
7.8041
8.5875
9.2399
10.251
9.8483
9.1424
8.9387
7.4493
6.1824
6.7844
7.8304
8.6186
9.2706
10.281
9.8799
9.1738
8.9611
7.4648
6.2023
6.8139
7.8631
8.6519
9.3019
10.315
9.908
9.2091
9.0032
7.4995
6.2376
6.8502
7.9024
8.6927
9.3535
10.367
9.956
9.2508
9.0466
7.5407
6.2855
6.903
7.9559
8.7419
9.406
10.422
10.001
9.3043
9.0947
7.5858
6.3393
6.9617
8.0039
8.7886
9.4568
10.467
10.045
9.3427
9.1337
7.6202
6.3786
7.0016
8.0499
8.8276
9.488
10.491
10.067
9.3702
9.1565
7.6324
6.3904
7.0087
8.0564
8.8275
9.4849
10.485
10.055
9.3559
9.1378
7.6048
6.364
6.9814
8.0222
8.7925
9.4527
10.447
10.009
9.3029
9.0817
7.539
6.305
6.9255
7.9591
8.726
9.3802
10.372
9.9292
9.229
9.0078
7.4617
6.2305
6.8551
7.894
8.6593
9.3187
10.31
9.8659
9.1664
8.9493
7.3981
6.1775
6.8065
7.8437
8.6205
9.2912
10.281
9.8358
9.1338
8.9175
7.3757
6.1566
6.7897
7.8389
8.6079
9.2785
10.272
9.8196
9.1299
8.9179
7.3642
6.1583
6.7945
7.8384
8.6089
9.2829
10.275
9.8237
9.1265
8.9114
7.3548
6.1526
6.7945
7.845
8.6141
9.2906
10.286
9.8272
9.1325
8.9196
7.3583
6.1609
6.8064
7.8526
8.6211
9.2965
10.287
9.8287
9.1365
8.9161
7.3493
6.1561
6.804
7.8511
8.6164
9.2947
10.285
9.8196
9.1262
8.9075
7.3402
6.1565
6.8036
7.8517
8.6216
9.2958
10.281
9.8156
9.1262
8.9057
7.3307
6.1473
6.7984
7.8488
8.6128
9.2873
10.264
9.7965
9.1108
8.8911
7.3076
6.1367
6.79
7.8363
8.6004
9.2815
10.262
9.793
9.1064
8.885
7.2993
6.1304
6.788
7.8389
8.6013
9.2837
10.263
9.7842
9.1001
8.8849
7.2783
6.0928
6.7524
7.8172
8.5948
9.2885
10.286
9.8078
9.1061
8.8784
7.2615
6.0746
6.7417
7.8154
8.5901
9.2893
10.29
9.8023
9.1103
8.8793
7.2477
6.0608
6.7302
7.8074
8.5839
9.2895
10.287
9.796
9.0999
8.8705
7.2311
6.0479
6.7239
7.8069
8.5799
9.2857
10.284
9.7927
9.0915
8.8579
7.2125
6.0424
6.7227
7.8035
8.5765
9.2814
10.277
9.7804
9.0863
8.8526
7.1996
6.0221
6.7057
7.792
8.5689
9.2806
10.275
9.7682
9.0696
8.8312
7.1677
6.0132
6.7078
7.7888
8.5658
9.2813
10.277
9.772
9.0741
8.8346
7.1675
6.0099
6.7038
7.7863
8.5585
9.2798
10.274
9.7615
9.065
8.8245
7.1574
6.0075
6.707
7.7882
8.5636
9.2792
10.267
9.7562
9.0616
8.8272
7.1556
6.0078
6.7072
7.7882
8.5618
9.2863
10.276
9.7545
9.0648
8.822
7.1467
6.0107
6.7109
7.7943
8.5696
9.2929
10.284
9.7631
9.0793
8.8439
7.1626
6.0311
6.7315
7.8175
8.5865
9.3053
10.288
9.7598
9.0745
8.838
7.1455
6.0128
6.7191
7.7965
8.5664
9.2926
10.278
9.7527
9.063
8.8163
7.1288
6.0087
6.7266
7.8076
8.5727
9.2982
10.274
9.7342
9.0457
8.7979
7.1041
5.9942
6.7086
7.7885
8.5577
9.2799
10.256
9.7277
9.0454
8.8001
7.1065
5.9905
6.7072
7.7861
8.5492
9.2806
10.257
9.718
9.0401
8.8003
7.1024
6.0006
6.7101
7.7893
8.5529
9.2768
10.251
9.7168
9.0391
8.7947
7.0966
6.0078
6.7232
7.8134
8.5677
9.2954
10.264
9.7253
9.058
8.832
7.155
6.0937
6.8549
7.9867
8.8109
9.6013
10.633
10.168
9.577
9.3635
7.6628
6.5687
7.2808
8.3589
9.0829
9.7956
10.716
10.125
9.3583
8.9238
6.9123
5.4068
5.9146
6.9787
7.8646
8.735
9.7977
9.3368
8.7248
8.5299
6.8607
5.8369
6.6041
7.7162
8.4869
9.2329
10.203
9.6766
9.0347
8.7968
7.0971
6.061
6.8059
7.8818
8.6373
9.3822
10.33
9.7794
9.1188
8.8679
7.155
6.1169
6.8493
7.9239
8.6742
9.4095
10.35
9.7951
9.1368
8.8862
7.1716
6.1441
6.8792
7.9434
8.6884
9.4273
10.356
9.7935
9.1425
8.8945
7.2008
6.1915
6.9255
7.9775
8.7109
9.4379
10.352
9.7995
9.1593
8.9126
7.2243
6.2275
6.9617
8.0074
8.737
9.4674
10.383
9.8248
9.1902
8.9471
7.2618
6.2699
7.0034
8.0542
8.7755
9.5
10.409
9.8584
9.2285
8.9845
7.2965
6.3109
7.0459
8.0883
8.8176
9.5516
10.456
9.9001
9.2712
9.0216
7.3338
6.3589
7.0972
8.1441
8.8676
9.594
10.498
9.9407
9.3125
9.0615
7.3638
6.3928
7.1284
8.172
8.8889
9.6179
10.52
9.9545
9.3232
9.0718
7.3673
6.4005
7.1375
8.177
8.8895
9.6151
10.509
9.941
9.3131
9.0473
7.3359
6.3694
7.1055
8.1373
8.8476
9.5779
10.461
9.881
9.2452
8.9783
7.2584
6.2884
7.0265
8.0584
8.7635
9.4885
10.372
9.7911
9.1666
8.898
7.1731
6.2162
6.9542
7.9899
8.6934
9.4212
10.311
9.732
9.103
8.8366
7.1153
6.1625
6.9022
7.9428
8.6519
9.3837
10.266
9.6846
9.0643
8.8005
7.0743
6.1322
6.8802
7.9201
8.6279
9.3644
10.252
9.6745
9.0545
8.7882
7.0559
6.1192
6.873
7.9179
8.6264
9.3661
10.248
9.6649
9.0466
8.7779
7.0485
6.1166
6.8648
7.9095
8.6249
9.3658
10.244
9.6606
9.0438
8.7714
7.0369
6.1137
6.8662
7.9057
8.6141
9.3619
10.24
9.6503
9.034
8.7641
7.0247
6.1063
6.8628
7.9047
8.6108
9.3534
10.227
9.6389
9.0235
8.7534
7.0148
6.0977
6.8553
7.8993
8.6113
9.3606
10.232
9.6325
9.0188
8.748
7.0047
6.0958
6.8609
7.9036
8.6109
9.3606
10.232
9.6324
9.0213
8.7467
6.999
6.0964
6.8611
7.9023
8.6083
9.3634
10.229
9.6305
9.0219
8.7421
6.9908
6.0929
6.8597
7.903
8.6097
9.3657
10.225
9.6193
9.0123
8.7359
6.9836
6.093
6.8675
7.9118
8.6122
9.3664
10.228
9.6225
9.0171
8.7373
6.985
6.0997
6.8679
7.9081
8.6094
9.37
10.227
9.6192
9.0145
8.7387
6.9794
6.0967
6.8693
7.9118
8.6147
9.3752
10.232
9.6177
9.0189
8.7368
6.9798
6.1075
6.8771
7.9133
8.6135
9.3807
10.238
9.6248
9.0223
8.7376
6.9767
6.1066
6.883
7.9232
8.6224
9.3849
10.232
9.622
9.0283
8.7404
6.9739
6.1098
6.884
7.9193
8.6174
9.3848
10.235
9.6219
9.0222
8.7385
6.9723
6.1071
6.8859
7.9243
8.6241
9.3939
10.244
9.6269
9.0282
8.7393
6.9698
6.1139
6.8971
7.9373
8.634
9.3985
10.241
9.6265
9.0329
8.7415
6.9668
6.1164
6.8999
7.9385
8.6378
9.4083
10.252
9.6302
9.0309
8.7405
6.9686
6.1263
6.9112
7.9494
8.6462
9.4246
10.267
9.6439
9.0532
8.7605
6.9808
6.1411
6.9304
7.9648
8.6619
9.4424
10.275
9.6443
9.0557
8.7593
6.9752
6.1375
6.9197
7.9535
8.6495
9.427
10.259
9.6323
9.0433
8.7403
6.9566
6.1328
6.9233
7.96
8.6586
9.4404
10.264
9.6286
9.0372
8.7327
6.9481
6.1284
6.9238
7.9563
8.6545
9.4355
10.259
9.6281
9.0439
8.7414
6.9469
6.1331
6.9325
7.9658
8.6545
9.4401
10.259
9.6256
9.045
8.7451
6.9481
6.1383
6.9393
7.9741
8.6636
9.4542
10.277
9.6394
9.0578
8.7466
6.9534
6.151
6.9501
7.9834
8.6767
9.4741
10.293
9.651
9.0815
8.8029
7.0316
6.2653
7.1149
8.2145
8.9576
9.8154
10.697
10.145
9.6277
9.3286
7.5124
6.7003
7.4908
8.5007
9.153
9.9254
10.699
10.029
9.3174
8.7913
6.5832
5.4444
6.1316
7.2288
8.0535
8.9751
9.8719
9.2957
8.775
8.5073
6.7466
6.0027
6.8472
7.908
8.609
9.4226
10.254
9.6324
9.0755
8.7691
6.9756
6.2143
7.0326
8.0704
8.7647
9.5729
10.379
9.7282
9.1581
8.8404
7.033
6.268
7.0809
8.119
8.8058
9.6072
10.407
9.7591
9.1906
8.8657
7.0584
6.2944
7.1051
8.1335
8.8226
9.635
10.435
9.7813
9.2109
8.8874
7.0725
6.3141
7.1363
8.1751
8.8549
9.6642
10.459
9.8022
9.2399
8.9173
7.0944
6.3443
7.1675
8.1991
8.8878
9.7037
10.501
9.849
9.282
8.9551
7.1387
6.3928
7.2222
8.2586
8.9417
9.7529
10.546
9.894
9.3346
9.0033
7.1817
6.4444
7.2658
8.3079
8.9939
9.8106
10.603
9.9406
9.3836
9.0586
7.2334
6.4968
7.3264
8.3677
9.0485
9.8618
10.649
9.9926
9.4332
9.0964
7.2688
6.5447
7.3682
8.4027
9.0832
9.8946
10.673
10.012
9.4501
9.1086
7.2726
6.5421
7.3652
8.397
9.0754
9.8863
10.656
9.9876
9.4284
9.0784
7.2373
6.5103
7.3291
8.3542
9.0295
9.8382
10.603
9.9314
9.3688
9.0126
7.1649
6.4393
7.2596
8.2898
8.962
9.7679
10.534
9.8569
9.3009
8.9457
7.0937
6.371
7.1981
8.2286
8.9024
9.718
10.481
9.8021
9.2434
8.8884
7.0349
6.3203
7.1598
8.1903
8.8673
9.6917
10.458
9.7777
9.2255
8.8685
7.0112
6.3125
7.1557
8.196
8.8699
9.6884
10.448
9.7696
9.2199
8.8655
7.0112
6.3101
7.1539
8.1904
8.8658
9.6974
10.458
9.7717
9.2247
8.8658
7.0076
6.3173
7.1636
8.1977
8.8786
9.7081
10.464
9.7774
9.2284
8.8672
7.0123
6.3274
7.1773
8.2066
8.8828
9.7197
10.475
9.7818
9.2346
8.8709
7.0102
6.3305
7.1768
8.2133
8.8839
9.7172
10.47
9.7766
9.2344
8.8684
7.0048
6.3332
7.1844
8.2213
8.8931
9.7218
10.472
9.7821
9.2445
8.8672
6.9971
6.3363
7.189
8.2252
8.894
9.7245
10.46
9.7614
9.2197
8.8486
6.9726
6.3003
7.1534
8.1897
8.8606
9.7028
10.445
9.7431
9.202
8.8258
6.9476
6.2837
7.1398
8.1747
8.8469
9.6861
10.426
9.7272
9.1887
8.8091
6.9297
6.2738
7.1377
8.1803
8.8493
9.6933
10.432
9.7304
9.1916
8.8052
6.9231
6.2764
7.1369
8.1763
8.8512
9.7053
10.44
9.7335
9.1941
8.8146
6.9255
6.2712
7.1396
8.1823
8.8571
9.7158
10.452
9.7381
9.2055
8.8136
6.9064
6.2566
7.1279
8.1817
8.8687
9.7426
10.484
9.758
9.2122
8.8145
6.894
6.2473
7.1387
8.1978
8.8809
9.7585
10.493
9.7741
9.2274
8.8281
6.9025
6.2564
7.1491
8.2154
8.8968
9.7666
10.505
9.7781
9.2375
8.8326
6.9026
6.2629
7.1562
8.2216
8.9026
9.7837
10.519
9.7915
9.248
8.838
6.9027
6.2641
7.1594
8.2211
8.9107
9.7949
10.529
9.7963
9.2487
8.8365
6.8991
6.2673
7.1649
8.2302
8.9143
9.8031
10.535
9.7951
9.254
8.8396
6.905
6.2774
7.1746
8.2349
8.9221
9.814
10.541
9.8025
9.2617
8.8463
6.9027
6.2823
7.1855
8.2464
8.9303
9.8282
10.559
9.8221
9.2855
8.8691
6.9237
6.3023
7.205
8.2669
8.9541
9.8506
10.577
9.8385
9.2968
8.8697
6.9231
6.311
7.2079
8.2618
8.945
9.8449
10.561
9.8165
9.2824
8.8607
6.9015
6.2954
7.1999
8.2574
8.9444
9.8475
10.566
9.8262
9.285
8.8513
6.8897
6.2867
7.1934
8.257
8.9454
9.857
10.571
9.816
9.2782
8.8442
6.8868
6.2907
7.1972
8.257
8.945
9.8591
10.572
9.8181
9.2817
8.8468
6.8918
6.3047
7.2149
8.2805
8.9604
9.8645
10.569
9.8227
9.293
8.8548
6.8936
6.3108
7.221
8.2779
8.9639
9.8835
10.59
9.8427
9.3117
8.8746
6.9298
6.3749
7.327
8.4298
9.1629
10.133
10.897
10.214
9.7534
9.3857
7.4553
6.8723
7.756
8.7979
9.4528
10.314
10.975
10.201
9.6525
9.138
7.0044
6.1653
6.6669
7.4801
8.1261
9.1612
9.9999
9.3639
8.9142
8.5275
6.6206
6.103
7.0623
8.1672
8.8837
9.8246
10.538
9.8108
9.3117
8.8754
6.9238
6.3728
7.3045
8.3785
9.0682
9.9934
10.682
9.9258
9.4079
8.954
6.9827
6.4257
7.3468
8.4132
9.0977
10.027
10.715
9.9568
9.4381
8.9828
7.0119
6.4572
7.3829
8.444
9.1262
10.058
10.74
9.9757
9.4565
8.9959
7.0293
6.4847
7.4121
8.472
9.1544
10.083
10.762
9.992
9.4806
9.0203
7.0553
6.5164
7.4457
8.5044
9.1885
10.115
10.771
10.007
9.502
9.0434
7.1102
6.5987
7.5222
8.5589
9.228
10.141
10.787
10.036
9.5443
9.0944
7.1714
6.6625
7.5863
8.6226
9.2796
10.181
10.824
10.075
9.594
9.1307
7.222
6.7251
7.6368
8.6617
9.3202
10.228
10.864
10.121
9.6369
9.1751
7.2613
6.7605
7.6726
8.7002
9.3533
10.256
10.888
10.142
9.6525
9.1844
7.2701
6.7728
7.6784
8.6951
9.3437
10.246
10.876
10.122
9.6309
9.1569
7.2362
6.739
7.6434
8.6571
9.3037
10.202
10.819
10.061
9.5702
9.0892
7.1638
6.6688
7.575
8.5852
9.2263
10.124
10.739
9.9769
9.4875
9.0027
7.0733
6.5823
7.4909
8.5048
9.1476
10.058
10.674
9.9134
9.4254
8.9439
7.0103
6.5256
7.4397
8.461
9.1084
10.02
10.634
9.8748
9.3935
8.9048
6.9614
6.4862
7.4107
8.4359
9.0868
10.019
10.645
9.8724
9.386
8.8927
6.9264
6.4471
7.3821
8.4305
9.0921
10.031
10.651
9.8728
9.384
8.88
6.9099
6.4376
7.3799
8.4283
9.0923
10.029
10.657
9.8763
9.3847
8.8767
6.9047
6.4331
7.3801
8.4302
9.0916
10.028
10.648
9.8702
9.3844
8.8768
6.9018
6.4364
7.3778
8.4265
9.0942
10.043
10.658
9.875
9.3861
8.8704
6.8934
6.43
7.3857
8.4348
9.0897
10.037
10.652
9.8741
9.3864
8.8691
6.8866
6.4302
7.3798
8.4324
9.0934
10.039
10.645
9.8625
9.3847
8.859
6.8787
6.4217
7.3726
8.4194
9.087
10.039
10.646
9.8577
9.3812
8.8627
6.8794
6.4233
7.3774
8.4236
9.0802
10.031
10.638
9.8506
9.3782
8.8533
6.8708
6.4212
7.373
8.419
9.0818
10.031
10.635
9.8496
9.3723
8.8478
6.8657
6.423
7.3751
8.4149
9.0733
10.024
10.624
9.8471
9.3725
8.8401
6.8575
6.4199
7.3714
8.4153
9.0735
10.023
10.619
9.8363
9.3677
8.831
6.8544
6.4127
7.366
8.4143
9.072
10.028
10.619
9.8409
9.3666
8.8282
6.8517
6.4136
7.3608
8.405
9.0672
10.019
10.611
9.8331
9.3635
8.8233
6.843
6.4125
7.3719
8.4235
9.0675
10.012
10.606
9.8256
9.3613
8.8166
6.8354
6.4068
7.3694
8.4155
9.0659
10.015
10.603
9.8218
9.3575
8.8118
6.831
6.4072
7.3685
8.4131
9.0666
10.014
10.596
9.8121
9.3521
8.8031
6.8233
6.4018
7.3639
8.4125
9.0634
10.008
10.595
9.8179
9.3581
8.8079
6.8312
6.4165
7.3871
8.4355
9.086
10.038
10.615
9.8321
9.3699
8.8122
6.8341
6.4259
7.3911
8.439
9.0829
10.019
10.591
9.8162
9.357
8.7914
6.8044
6.396
7.3738
8.4182
9.0591
10.006
10.582
9.8014
9.3471
8.785
6.7963
6.3869
7.3572
8.3985
9.0456
9.9976
10.572
9.7921
9.3335
8.7644
6.7804
6.3731
7.3492
8.3953
9.0444
9.9984
10.564
9.7767
9.3255
8.755
6.7736
6.3739
7.3504
8.4011
9.0466
9.9981
10.56
9.7741
9.3236
8.7557
6.7727
6.3783
7.3528
8.3952
9.0405
10.001
10.565
9.7681
9.3233
8.7574
6.7826
6.4017
7.4102
8.4835
9.1683
10.194
10.798
10.049
9.6732
9.1717
7.2938
6.9853
7.9867
9.0265
9.6534
10.625
11.139
10.292
9.8183
9.1995
7.1882
6.667
7.4051
8.0256
8.3524
9.2252
9.8437
9.1745
8.837
8.3323
6.4126
6.0769
7.108
8.1894
8.8638
9.8495
10.437
9.6634
9.2267
8.657
6.6895
6.3363
7.3388
8.3936
9.058
10.042
10.6
9.809
9.3686
8.7857
6.805
6.4302
7.4249
8.4674
9.1105
10.07
10.619
9.8349
9.4008
8.806
6.8276
6.4682
7.4522
8.4912
9.1366
10.1
10.641
9.8531
9.4163
8.8226
6.8424
6.4749
7.4735
8.5178
9.1565
10.116
10.655
9.8727
9.4378
8.8425
6.871
6.5166
7.5046
8.5483
9.1928
10.149
10.684
9.8973
9.4698
8.8755
6.9035
6.5508
7.5479
8.5932
9.2307
10.192
10.727
9.9385
9.513
8.9201
6.9459
6.5955
7.5904
8.6342
9.2792
10.245
10.78
9.9964
9.5673
8.9673
6.995
6.6492
7.6546
8.6971
9.3342
10.291
10.822
10.031
9.6112
9.0061
7.0355
6.7036
7.7063
8.7449
9.3717
10.32
10.844
10.058
9.6289
9.0175
7.0684
6.7455
7.7324
8.7537
9.3746
10.311
10.812
10.028
9.6011
8.9961
7.0548
6.732
7.709
8.7175
9.3238
10.253
10.744
9.959
9.538
8.9282
6.9887
6.6592
7.6246
8.6291
9.236
10.159
10.647
9.864
9.4408
8.8318
6.8969
6.5717
7.5376
8.5409
9.1472
10.074
10.561
9.7763
9.3573
8.7454
6.8214
6.5105
7.4846
8.4839
9.0929
10.024
10.509
9.727
9.3123
8.6965
6.7805
6.4726
7.4452
8.4471
9.0608
9.9983
10.49
9.7042
9.2899
8.6804
6.7637
6.4581
7.4398
8.4429
9.0523
9.9971
10.479
9.6923
9.2851
8.6753
6.7553
6.4555
7.4371
8.4383
9.0463
9.99
10.479
9.692
9.282
8.6667
6.7412
6.4432
7.4286
8.429
9.0473
9.9996
10.486
9.6964
9.2904
8.6686
6.7316
6.4327
7.4108
8.4214
9.0507
10.021
10.514
9.7088
9.2923
8.6638
6.703
6.3971
7.3989
8.4272
9.0543
10.023
10.518
9.7205
9.3048
8.6672
6.7076
6.4078
7.41
8.433
9.0618
10.033
10.524
9.7206
9.3063
8.6753
6.7231
6.4339
7.4418
8.4618
9.0794
10.031
10.504
9.704
9.297
8.6697
6.7522
6.4805
7.4742
8.4687
9.0757
10.02
10.478
9.6889
9.291
8.6726
6.7779
6.5038
7.4809
8.4677
9.0692
10.009
10.47
9.692
9.2955
8.6731
6.7844
6.5171
7.4891
8.4733
9.0725
10.008
10.462
9.6818
9.2919
8.6694
6.7878
6.525
7.4962
8.4739
9.0745
10.016
10.46
9.6766
9.2896
8.6628
6.7823
6.5249
7.4939
8.473
9.0707
10.008
10.46
9.683
9.2937
8.6659
6.7876
6.5298
7.5089
8.4937
9.083
10.009
10.458
9.6833
9.3028
8.6689
6.7797
6.5284
7.508
8.49
9.0842
10.014
10.46
9.6901
9.3038
8.6706
6.788
6.5334
7.5188
8.5001
9.1034
10.04
10.489
9.714
9.3331
8.6996
6.8164
6.5629
7.5508
8.5353
9.1312
10.059
10.508
9.7368
9.3578
8.7193
6.8295
6.5799
7.5744
8.5654
9.162
10.101
10.545
9.7653
9.3819
8.7407
6.8533
6.6035
7.588
8.5685
9.1692
10.111
10.558
9.7743
9.3857
8.7374
6.8477
6.5999
7.5877
8.5706
9.1698
10.109
10.55
9.767
9.3745
8.7259
6.8298
6.5906
7.5819
8.5627
9.162
10.106
10.545
9.7579
9.377
8.7257
6.8388
6.6
7.595
8.5759
9.1717
10.116
10.553
9.7681
9.396
8.7543
6.876
6.6749
7.7099
8.7282
9.3765
10.384
10.886
10.175
9.8794
9.3244
7.5646
7.4214
8.4437
9.414
9.9775
10.884
11.25
10.41
9.9745
9.291
7.3912
7.0438
7.7673
8.3201
8.6555
9.5264
9.9216
9.2058
8.9152
8.3007
6.4545
6.2624
7.2854
8.2869
8.9066
9.8733
10.314
9.5321
9.151
8.4917
6.61
6.4018
7.4164
8.4065
9.0078
9.9556
10.381
9.5865
9.2075
8.5315
6.6305
6.4074
7.404
8.3798
8.9671
9.9038
10.324
9.5267
9.1479
8.4685
6.562
6.3336
7.3225
8.2956
8.8875
9.827
10.244
9.4531
9.0705
8.3891
6.4842
6.2591
7.2593
8.233
8.8293
9.7644
10.17
9.3775
9.0012
8.315
6.4113
6.1928
7.194
8.1722
8.7754
9.7183
10.129
9.3368
8.9595
8.281
6.3773
6.1599
7.1728
8.157
8.7718
9.6846
10.095
9.3068
8.9341
8.2474
6.3493
6.1382
7.1418
8.1296
8.7315
9.6532
10.078
9.2953
8.9208
8.2275
6.3351
6.1269
7.1369
8.1214
8.7182
9.6413
10.06
9.2764
8.897
8.2128
6.313
6.099
7.1017
8.0919
8.6762
9.6109
10.024
9.2323
8.8477
8.1567
6.258
6.0467
7.0537
8.0314
8.6056
9.5378
9.9407
9.1388
8.7559
8.06
6.1639
5.9507
6.9552
7.927
8.4966
9.4284
9.8234
9.0189
8.6442
7.9434
6.0355
5.8231
6.8188
7.7769
8.3494
9.2831
9.6783
8.8697
8.4909
7.7922
5.894
5.6855
6.6804
7.6432
8.2173
9.1582
9.5508
8.7513
8.3834
7.6855
5.7911
5.5871
6.5917
7.5552
8.1332
9.074
9.4699
8.6788
8.3181
7.6227
5.7298
5.5303
6.5375
7.5001
8.0807
9.0205
9.4193
8.6295
8.264
7.5631
5.688
5.4953
6.4992
7.4662
8.0538
8.9981
9.3952
8.6051
8.2494
7.5564
5.679
5.4935
6.4986
7.464
8.049
8.9899
9.3848
8.6
8.2428
7.5495
5.6767
5.495
6.4971
7.4537
8.0366
8.9839
9.3697
8.5838
8.2281
7.5297
5.66
5.4749
6.4804
7.4348
8.01
8.9476
9.3399
8.5579
8.2027
7.5026
5.6379
5.4532
6.4574
7.4106
7.9847
8.9281
9.3126
8.5291
8.1738
7.473
5.6149
5.4346
6.4365
7.3924
7.9713
8.9097
9.2956
8.5151
8.1678
7.4623
5.6059
5.4359
6.4346
7.3838
7.9647
8.9078
9.2888
8.5134
8.1627
7.4556
5.6063
5.4359
6.4358
7.3842
7.9588
8.8923
9.2764
8.4985
8.1513
7.4471
5.5965
5.4274
6.4265
7.3749
7.95
8.879
9.2549
8.4803
8.1365
7.4231
5.5813
5.4115
6.4073
7.3551
7.9293
8.8566
9.2307
8.4576
8.1123
7.4012
5.5591
5.3913
6.3854
7.3362
7.9056
8.8321
9.2048
8.4301
8.0803
7.3615
5.5168
5.3537
6.3645
7.3162
7.8716
8.7835
9.1599
8.3917
8.0552
7.3366
5.4903
5.3311
6.3422
7.2924
7.8487
8.7757
9.1462
8.3638
8.0372
7.3148
5.4697
5.3186
6.3243
7.2722
7.8428
8.7764
9.144
8.3703
8.0269
7.3009
5.4565
5.3112
6.3106
7.2676
7.8526
8.8092
9.1781
8.3982
8.0581
7.3409
5.4947
5.3525
6.3537
7.3116
7.9026
8.8712
9.2356
8.4525
8.1055
7.3864
5.5326
5.3851
6.3931
7.3517
7.9385
8.8995
9.2629
8.4819
8.1422
7.4181
5.5669
5.4292
6.4332
7.3924
7.9849
8.9509
9.3096
8.5219
8.1774
7.4579
5.6028
5.465
6.4729
7.433
8.0206
8.9863
9.3417
8.5617
8.2233
7.4976
5.6408
5.4996
6.5087
7.472
8.0612
9.0325
9.3941
8.6157
8.2737
7.5454
5.6901
5.5551
6.5695
7.5293
8.1212
9.096
9.4534
8.67
8.3275
7.6
5.7396
5.6102
6.6274
7.5962
8.1937
9.1745
9.5447
8.7947
8.4821
7.7899
5.9827
5.9197
7.0012
8.0478
8.729
9.8013
10.188
9.3918
9.012
8.2404
6.3326
6.1195
7.0712
7.999
8.5949
9.5494
9.7363
8.6673
7.8976
6.9325
5.0595
5.0577
6.2166
7.3083
7.9846
9.0396
9.4457
8.7133
8.4163
7.7201
5.8902
5.7954
6.8318
7.8308
8.4521
9.4694
9.8323
9.0584
8.7258
7.9853
6.1151
6.0035
7.0241
8.0021
8.6006
9.5937
9.9374
9.148
8.8058
8.0559
6.1801
6.0668
7.087
8.0592
8.6543
9.6446
9.9819
9.1891
8.8482
8.0917
6.2095
6.0952
7.1054
8.0761
8.6785
9.6857
10.023
9.2231
8.8789
8.1239
6.2426
6.1269
7.142
8.1182
8.7217
9.7165
10.052
9.2576
8.9127
8.155
6.2728
6.1629
7.1805
8.1533
8.7539
9.7604
10.092
9.2948
8.957
8.1979
6.3102
6.2053
7.2253
8.2
8.8032
9.8143
10.146
9.3524
9.0154
8.2636
6.3848
6.2849
7.3089
8.2893
8.8953
9.9075
10.244
9.4481
9.1027
8.3447
6.463
6.3536
7.3769
8.3559
8.9598
9.9722
10.296
9.4957
9.1538
8.3898
6.5045
6.4005
7.4204
8.4
8.9965
10.006
10.332
9.5276
9.1804
8.4104
6.5166
6.4092
7.4211
8.3887
8.99
10.004
10.32
9.507
9.1561
8.3818
6.4847
6.3738
7.386
8.3522
8.94
9.944
10.258
9.4388
9.0924
8.3081
6.4101
6.3006
7.3131
8.2777
8.8729
9.8811
10.187
9.3722
9.0242
8.2402
6.3431
6.2436
7.2649
8.23
8.8199
9.8261
10.142
9.3342
8.9902
8.2009
6.3111
6.2165
7.2335
8.2016
8.8031
9.8214
10.131
9.3185
8.9752
8.1902
6.3005
6.2077
7.236
8.2076
8.8046
9.8146
10.124
9.3151
8.978
8.189
6.2967
6.2113
7.2321
8.1999
8.8017
9.8177
10.13
9.3211
8.9779
8.1923
6.296
6.2034
7.2258
8.1956
8.7975
9.8166
10.125
9.3102
8.9756
8.1856
6.2902
6.1993
7.2166
8.184
8.79
9.8182
10.124
9.3159
8.9689
8.1774
6.2904
6.1983
7.2184
8.1902
8.789
9.8118
10.12
9.3096
8.9687
8.1731
6.279
6.1924
7.2096
8.1795
8.7844
9.8077
10.11
9.3027
8.9568
8.1651
6.2708
6.1877
7.2119
8.1798
8.7831
9.8016
10.104
9.29
8.9513
8.1505
6.2593
6.1789
7.2099
8.1774
8.7743
9.7962
10.093
9.2847
8.947
8.1339
6.2392
6.1537
7.182
8.1535
8.7554
9.78
10.076
9.2629
8.9247
8.1187
6.2204
6.1438
7.1732
8.1424
8.7452
9.7745
10.071
9.2621
8.9232
8.1107
6.222
6.1438
7.1728
8.1429
8.7475
9.7757
10.067
9.2542
8.9191
8.1082
6.2136
6.1438
7.1749
8.141
8.7409
9.7717
10.064
9.2487
8.9086
8.0966
6.2034
6.1335
7.162
8.1287
8.7314
9.7663
10.055
9.2406
8.9054
8.0894
6.1982
6.1304
7.1571
8.1201
8.7183
9.7468
10.032
9.2138
8.8814
8.065
6.164
6.1023
7.1248
8.0867
8.6893
9.7217
10.006
9.1927
8.8522
8.0272
6.1305
6.0646
7.0809
8.0379
8.6437
9.6717
9.9424
9.1211
8.7854
7.9619
6.0634
5.9983
7.0242
7.9859
8.5833
9.6134
9.8937
9.0781
8.7516
7.931
6.0354
5.9686
6.9897
7.9511
8.5591
9.5914
9.8639
9.0491
8.7142
7.8939
6.0052
5.9505
6.98
7.9425
8.5463
9.586
9.8515
9.0394
8.7128
7.8881
5.996
5.9453
6.9766
7.9434
8.5481
9.5808
9.8547
9.041
8.7158
7.8887
6.005
5.9553
6.9873
7.9468
8.5498
9.5825
9.8501
9.0428
8.7237
7.8986
6.0146
5.9891
7.0479
8.0382
8.6789
9.7708
10.108
9.362
9.1127
8.367
6.5647
6.5497
7.5741
8.4935
9.0631
10.046
10.213
9.3451
8.9759
8.1306
6.1906
5.9794
6.7119
7.2549
7.6565
8.7026
9.0999
8.4372
8.2285
7.4678
5.6548
5.678
6.7707
7.776
8.4244
9.5038
9.7897
8.9991
8.7016
7.8925
6.0317
6.0223
7.0783
8.0531
8.6646
9.7108
9.9739
9.1637
8.8446
8.0076
6.1312
6.1009
7.142
8.1077
8.7189
9.7575
10.025
9.2123
8.8914
8.0534
6.1729
6.1428
7.18
8.1493
8.7557
9.8032
10.06
9.2489
8.9239
8.0872
6.2088
6.1805
7.2196
8.1818
8.7877
9.8344
10.095
9.2826
8.9638
8.1223
6.2442
6.2215
7.2681
8.2313
8.8387
9.889
10.147
9.3351
9.0206
8.1736
6.3013
6.2796
7.3268
8.2939
8.9076
9.9593
10.21
9.3967
9.0888
8.2398
6.3686
6.3545
7.4022
8.3697
8.9829
10.032
10.283
9.4777
9.1624
8.3118
6.4402
6.4299
7.4754
8.4393
9.0568
10.114
10.356
9.5426
9.2333
8.3823
6.5118
6.4997
7.5423
8.5068
9.1143
10.162
10.409
9.5994
9.2832
8.4255
6.5493
6.5309
7.5682
8.524
9.1336
10.187
10.422
9.5996
9.282
8.4171
6.5469
6.522
7.5588
8.5076
9.1026
10.113
10.366
9.5565
9.2415
8.3667
6.4923
6.4572
7.4815
8.4277
9.0266
10.052
10.29
9.4779
9.1575
8.2837
6.4096
6.3856
7.4134
8.3636
8.9612
9.9856
10.229
9.4252
9.1056
8.2315
6.3653
6.345
7.371
8.3244
8.928
9.9695
10.208
9.3998
9.0907
8.2216
6.3548
6.3401
7.3703
8.3251
8.9311
9.9741
10.215
9.4107
9.0993
8.2309
6.3661
6.3485
7.3857
8.3451
8.95
9.9911
10.231
9.4229
9.11
8.2383
6.3767
6.3638
7.4003
8.3581
8.9645
10.007
10.245
9.4354
9.1298
8.2535
6.3877
6.3768
7.4121
8.3702
8.9742
10.019
10.25
9.4431
9.1301
8.2527
6.3888
6.3807
7.418
8.3745
8.9774
10.025
10.255
9.4422
9.1323
8.2509
6.3804
6.3765
7.4242
8.3815
8.9816
10.019
10.247
9.4459
9.1345
8.2508
6.383
6.3763
7.4153
8.3685
8.9731
10.025
10.26
9.4471
9.1337
8.2509
6.3814
6.3786
7.4142
8.3742
8.9805
10.028
10.254
9.4435
9.1373
8.2485
6.3782
6.3786
7.4169
8.368
8.9797
10.034
10.262
9.4522
9.1403
8.2509
6.3836
6.3819
7.4214
8.3764
8.9827
10.037
10.258
9.4446
9.1396
8.2548
6.3836
6.3884
7.4302
8.3878
8.997
10.049
10.271
9.4576
9.149
8.2536
6.3851
6.3901
7.4336
8.388
8.9989
10.048
10.268
9.4546
9.1479
8.2537
6.3875
6.3948
7.4321
8.3836
8.993
10.053
10.279
9.4664
9.1561
8.2605
6.3911
6.4029
7.4478
8.4045
9.0113
10.066
10.279
9.4624
9.1559
8.2542
6.3819
6.3864
7.4252
8.3749
8.9771
10.033
10.25
9.4396
9.1243
8.2225
6.3487
6.3556
7.4006
8.3533
8.9643
10.023
10.229
9.413
9.1083
8.2072
6.3466
6.3578
7.3982
8.3463
8.9489
9.9979
10.209
9.3934
9.0832
8.18
6.3171
6.3365
7.3813
8.3343
8.9377
9.9879
10.196
9.3871
9.0815
8.1731
6.3077
6.3307
7.3841
8.337
8.94
9.9897
10.199
9.3801
9.0789
8.1662
6.3061
6.3315
7.3815
8.3328
8.9376
9.998
10.204
9.3917
9.0984
8.2084
6.3707
6.4264
7.5144
8.5255
9.1945
10.321
10.599
9.8751
9.6603
8.7781
6.9053
6.8914
7.9088
8.8122
9.3222
10.315
10.453
9.6242
9.2438
8.1415
5.9364
5.5649
6.4531
7.4457
8.1903
9.3891
9.6926
8.9534
8.7145
7.8564
6.0463
6.1224
7.213
8.1967
8.8206
9.8985
10.119
9.3364
9.0581
8.1596
6.3212
6.3699
7.4218
8.3752
8.988
10.048
10.244
9.4274
9.1344
8.2214
6.3666
6.4076
7.4575
8.406
9.01
10.068
10.265
9.4506
9.154
8.2308
6.3767
6.4149
7.4593
8.4028
9.016
10.082
10.273
9.4578
9.1582
8.2375
6.382
6.4262
7.4753
8.4264
9.0315
10.09
10.278
9.4666
9.1741
8.2468
6.3983
6.4378
7.4863
8.4378
9.0493
10.113
10.307
9.4937
9.1989
8.2751
6.4251
6.4736
7.5283
8.4791
9.0898
10.153
10.342
9.5317
9.2361
8.315
6.4734
6.5188
7.577
8.5288
9.1403
10.208
10.397
9.5854
9.292
8.367
6.5252
6.578
7.6276
8.5815
9.1965
10.26
10.443
9.6296
9.3394
8.4145
6.5678
6.62
7.6716
8.6207
9.2282
10.291
10.471
9.6561
9.3616
8.4286
6.5784
6.6297
7.6762
8.6181
9.2214
10.278
10.45
9.6311
9.3337
8.3934
6.5404
6.5866
7.628
8.5684
9.1681
10.223
10.392
9.5649
9.2471
8.2917
6.4291
6.465
7.4941
8.4059
8.9878
10.03
10.178
9.3473
9.036
8.0764
6.2115
6.2492
7.2811
8.2044
8.7933
9.8401
9.9986
9.1702
8.8603
7.909
6.0542
6.0956
7.1289
8.0606
8.6547
9.7123
9.8782
9.0598
8.7519
7.8055
5.9532
5.9998
7.041
7.9769
8.576
9.6414
9.8019
8.9841
8.6858
7.7386
5.8886
5.9461
6.9889
7.923
8.5254
9.5902
9.761
8.9441
8.6482
7.7027
5.8521
5.9081
6.9599
7.8991
8.4988
9.5678
9.7361
8.92
8.6268
7.6795
5.84
5.9061
6.9562
7.8996
8.5071
9.5767
9.7401
8.9218
8.6319
7.6897
5.848
5.9138
6.9625
7.9018
8.5051
9.574
9.7379
8.9243
8.6313
7.6851
5.8378
5.9045
6.9601
7.9013
8.5069
9.5756
9.7358
8.9178
8.6284
7.6704
5.8319
5.9006
6.952
7.886
8.4889
9.5646
9.7252
8.9089
8.6207
7.6641
5.8252
5.8884
6.9412
7.8833
8.4903
9.5674
9.7184
8.906
8.611
7.6521
5.8147
5.8885
6.9402
7.8826
8.4901
9.5666
9.7187
8.9006
8.6151
7.6585
5.8192
5.8911
6.9494
7.8861
8.4909
9.5599
9.7168
8.9043
8.6131
7.6513
5.8151
5.8947
6.9464
7.8841
8.4985
9.5736
9.7265
8.9168
8.6279
7.6741
5.8445
5.9262
6.9838
7.9227
8.5362
9.6096
9.7599
8.9493
8.6702
7.7068
5.8703
5.9492
6.9998
7.9332
8.5396
9.6159
9.7642
8.9506
8.6699
7.7097
5.8763
5.9589
7.0161
7.9521
8.5596
9.6246
9.7702
8.9643
8.6855
7.7162
5.8924
5.9819
7.0358
7.9779
8.5853
9.6493
9.7943
8.9808
8.6957
7.7347
5.9088
5.9911
7.0482
7.9904
8.5988
9.6671
9.8143
9.0079
8.7205
7.7563
5.9383
6.0276
7.083
8.0269
8.6236
9.6919
9.8371
9.032
8.7447
7.7855
5.9683
6.0547
7.1144
8.0586
8.6524
9.7215
9.8667
9.0624
8.777
7.8209
6.0081
6.1164
7.2042
8.1712
8.8091
9.9301
10.13
9.3896
9.1827
8.3162
6.609
6.7679
7.8337
8.7522
9.3298
10.372
10.448
9.58
9.2301
8.2401
6.3807
6.3144
7.0471
7.5499
7.9254
8.9745
9.2193
8.5505
8.3767
7.4883
5.7314
5.8674
6.9607
7.9366
8.5803
9.688
9.8518
9.0576
8.7957
7.8529
6.0635
6.1844
7.2552
8.1982
8.8172
9.8997
10.042
9.241
8.9699
8.0079
6.1985
6.2971
7.3516
8.2827
8.8813
9.9582
10.095
9.2867
9.0175
8.0504
6.238
6.3406
7.3938
8.321
8.9248
9.9935
10.135
9.3304
9.0532
8.0802
6.271
6.3721
7.4303
8.3581
8.9648
10.037
10.168
9.3603
9.0907
8.1219
6.3107
6.4132
7.468
8.3999
9.0078
10.084
10.221
9.4165
9.1394
8.168
6.3656
6.4706
7.5296
8.4594
9.068
10.146
10.276
9.474
9.203
8.2271
6.422
6.5348
7.5864
8.5153
9.1303
10.209
10.341
9.5383
9.2707
8.2965
6.4921
6.5999
7.6612
8.5922
9.2036
10.281
10.409
9.6023
9.331
8.3525
6.5447
6.6557
7.706
8.6365
9.2431
10.323
10.45
9.6382
9.3617
8.3796
6.5676
6.6751
7.7257
8.6486
9.2483
10.324
10.441
9.6312
9.3538
8.3616
6.5452
6.6491
7.6875
8.6103
9.2093
10.278
10.394
9.5808
9.294
8.303
6.4819
6.5857
7.6355
8.5494
9.1424
10.208
10.324
9.5135
9.2321
8.2324
6.4154
6.5201
7.5617
8.4844
9.0852
10.155
10.27
9.4542
9.1816
8.1905
6.3789
6.4833
7.5352
8.4568
9.0575
10.129
10.245
9.44
9.1642
8.1715
6.3583
6.4676
7.5158
8.4416
9.0476
10.129
10.247
9.4375
9.1619
8.1754
6.3666
6.481
7.5332
8.4555
9.0616
10.143
10.261
9.4541
9.1784
8.1934
6.3828
6.4934
7.5432
8.4704
9.0805
10.165
10.279
9.4737
9.2003
8.206
6.4033
6.5161
7.5647
8.4912
9.1029
10.186
10.297
9.4863
9.2136
8.2268
6.419
6.5373
7.5893
8.5123
9.1193
10.205
10.316
9.5078
9.2301
8.2331
6.4308
6.5521
7.6086
8.5293
9.1358
10.217
10.324
9.5166
9.2455
8.2513
6.441
6.5629
7.6188
8.5395
9.1434
10.223
10.332
9.5237
9.2508
8.2545
6.4462
6.5667
7.6228
8.5416
9.1465
10.227
10.339
9.5277
9.2541
8.2552
6.4514
6.5699
7.6256
8.5471
9.1524
10.229
10.341
9.5361
9.2582
8.2622
6.4549
6.576
7.6241
8.544
9.1557
10.243
10.347
9.5359
9.2641
8.2643
6.4608
6.5848
7.6348
8.5569
9.162
10.247
10.351
9.5434
9.2679
8.2636
6.4645
6.5893
7.6402
8.5603
9.1703
10.255
10.36
9.5497
9.2809
8.275
6.474
6.5993
7.6547
8.5729
9.1811
10.265
10.375
9.569
9.3036
8.3014
6.5026
6.6261
7.6794
8.6021
9.2192
10.301
10.405
9.6017
9.3219
8.3145
6.5111
6.6353
7.6882
8.6064
9.208
10.285
10.391
9.5863
9.3199
8.3035
6.5068
6.6309
7.6839
8.6055
9.2064
10.286
10.388
9.5899
9.3187
8.3063
6.5072
6.6351
7.6907
8.6103
9.2132
10.291
10.388
9.5804
9.3122
8.2978
6.5053
6.6332
7.6941
8.6129
9.2173
10.293
10.389
9.5887
9.32
8.3017
6.5104
6.6417
7.6971
8.6187
9.2283
10.304
10.399
9.5912
9.3315
8.3163
6.5228
6.6568
7.7131
8.6332
9.2412
10.317
10.411
9.6124
9.3481
8.3312
6.5463
6.6944
7.7775
8.7223
9.356
10.474
10.63
9.8928
9.7038
8.7586
7.0584
7.2616
8.3356
9.2305
9.7926
10.832
10.844
9.9458
9.6215
8.5622
6.762
6.7777
7.6292
8.1563
8.4089
9.3928
9.5709
8.9139
8.7885
7.8646
6.1489
6.351
7.4679
8.4309
9.0832
10.207
10.323
9.544
9.3132
8.3154
6.555
6.7124
7.7867
8.7135
9.3328
10.423
10.525
9.7268
9.4602
8.443
6.6611
6.806
7.8636
8.7825
9.3902
10.472
10.561
9.76
9.5003
8.4772
6.701
6.8445
7.9019
8.8167
9.4173
10.497
10.588
9.7846
9.5234
8.5037
6.7252
6.8708
7.929
8.8421
9.4479
10.52
10.613
9.8113
9.5539
8.5315
6.7591
6.9043
7.9618
8.8738
9.4804
10.56
10.644
9.8429
9.5862
8.5603
6.7878
6.9387
7.9953
8.9114
9.5164
10.594
10.678
9.8796
9.6279
8.6047
6.8323
6.9871
8.0447
8.9552
9.5641
10.641
10.728
9.9338
9.6725
8.6504
6.8806
7.0336
8.0932
9.0096
9.6117
10.692
10.778
9.9758
9.721
8.6941
6.9304
7.0851
8.1365
9.0479
9.6529
10.723
10.806
10.005
9.7494
8.7159
6.9369
7.0902
8.1403
9.0465
9.6505
10.722
10.802
9.9986
9.729
8.692
6.9134
7.0612
8.1075
9.0107
9.6071
10.671
10.746
9.941
9.6692
8.6272
6.8433
6.991
8.0394
8.9404
9.5317
10.592
10.661
9.8562
9.5872
8.5472
6.7645
6.9054
7.9588
8.865
9.459
10.524
10.596
9.7927
9.5228
8.4885
6.7092
6.8599
7.9108
8.8185
9.4156
10.485
10.557
9.7576
9.4944
8.4553
6.6838
6.8393
7.8926
8.8035
9.4055
10.477
10.549
9.7507
9.4896
8.4524
6.6853
6.8428
7.8988
8.8063
9.4032
10.475
10.551
9.7524
9.4935
8.4527
6.6833
6.8404
7.8946
8.8003
9.4066
10.486
10.557
9.7519
9.4963
8.4586
6.6907
6.8528
7.9064
8.8156
9.417
10.489
10.559
9.7605
9.4974
8.4574
6.6877
6.8503
7.9036
8.8099
9.4105
10.488
10.559
9.7591
9.4963
8.4566
6.6878
6.85
7.9035
8.809
9.4127
10.488
10.552
9.7501
9.492
8.4502
6.6842
6.8411
7.897
8.803
9.4106
10.484
10.552
9.7557
9.4921
8.4497
6.6839
6.8426
7.9017
8.8067
9.4049
10.48
10.542
9.7392
9.4831
8.4367
6.6741
6.8402
7.8922
8.7964
9.3983
10.476
10.541
9.7416
9.4778
8.4398
6.6747
6.8364
7.8923
8.7963
9.3997
10.469
10.535
9.7345
9.4769
8.4291
6.6665
6.8315
7.8883
8.7905
9.3963
10.474
10.534
9.7318
9.4764
8.4326
6.6709
6.8353
7.8939
8.7956
9.3961
10.467
10.531
9.7362
9.4792
8.4315
6.6647
6.8325
7.8932
8.7948
9.3961
10.469
10.532
9.733
9.4752
8.4276
6.6658
6.8294
7.8915
8.7993
9.4042
10.479
10.546
9.7498
9.4957
8.4483
6.6873
6.8586
7.9162
8.8231
9.4262
10.497
10.555
9.7603
9.4979
8.4434
6.6808
6.8447
7.9026
8.8035
9.4092
10.483
10.536
9.7391
9.4844
8.4264
6.6607
6.8297
7.8879
8.7969
9.4004
10.476
10.532
9.7349
9.4805
8.4324
6.6681
6.8362
7.8881
8.7881
9.3901
10.464
10.519
9.7254
9.4688
8.4156
6.66
6.8339
7.8985
8.7998
9.392
10.456
10.514
9.7207
9.4647
8.4058
6.6526
6.8245
7.8819
8.7864
9.391
10.464
10.52
9.7233
9.467
8.4162
6.6577
6.8287
7.8868
8.7934
9.4006
10.478
10.535
9.7387
9.4883
8.4539
6.7247
6.9265
8.0253
8.9786
9.6409
10.775
10.902
10.192
10.031
9.0177
7.2518
7.3853
8.399
9.2594
9.7689
10.779
10.769
9.9555
9.6585
8.4402
6.4008
6.16
7.001
7.8945
8.6209
9.8462
10.015
9.2966
9.1091
8.1028
6.4006
6.6302
7.7338
8.6714
9.2929
10.392
10.469
9.6956
9.4722
8.4289
6.6958
6.8881
7.949
8.8556
9.4669
10.551
10.601
9.8053
9.5575
8.4983
6.746
6.9282
7.9863
8.8884
9.4999
10.582
10.631
9.8319
9.5825
8.5207
6.7704
6.9509
8.0115
8.9117
9.5181
10.597
10.647
9.8498
9.5984
8.5357
6.7856
6.9727
8.0279
8.9325
9.5384
10.625
10.669
9.8712
9.6251
8.5646
6.8122
6.9956
8.062
8.9639
9.5711
10.654
10.701
9.9074
9.6576
8.595
6.8485
7.0322
8.0893
8.9946
9.6021
10.69
10.745
9.9495
9.6957
8.6342
6.8897
7.0737
8.1397
9.0431
9.6548
10.742
10.789
9.9944
9.7458
8.6806
6.9368
7.1235
8.1862
9.0899
9.696
10.777
10.83
10.036
9.7873
8.7233
6.9687
7.1585
8.2178
9.1148
9.7224
10.806
10.846
10.049
9.7927
8.7213
6.9646
7.1557
8.2138
9.1057
9.7065
10.775
10.82
10.02
9.7622
8.6815
6.9258
7.1069
8.1648
9.0585
9.6534
10.72
10.759
9.9518
9.6907
8.6065
6.8466
7.0234
8.0734
8.9689
9.5645
10.627
10.671
9.8705
9.6065
8.5258
6.769
6.9436
7.9907
8.886
9.4902
10.567
10.601
9.7995
9.5422
8.4702
6.7131
6.8956
7.9517
8.8491
9.4517
10.527
10.567
9.7661
9.5144
8.4372
6.6873
6.8768
7.9322
8.8322
9.4416
10.52
10.555
9.7551
9.5054
8.4284
6.682
6.8726
7.9354
8.8292
9.4284
10.508
10.555
9.7542
9.5025
8.4208
6.672
6.8647
7.9313
8.8264
9.4325
10.506
10.542
9.748
9.495
8.4194
6.6702
6.8569
7.9194
8.818
9.4225
10.505
10.541
9.7457
9.4822
8.4065
6.6594
6.8522
7.9214
8.8161
9.4166
10.489
10.525
9.7343
9.4798
8.3949
6.6496
6.8438
7.9028
8.8009
9.4076
10.485
10.52
9.7202
9.4674
8.3854
6.6426
6.8378
7.9008
8.7973
9.4001
10.47
10.508
9.7106
9.4603
8.3801
6.6311
6.8252
7.8896
8.7874
9.3876
10.458
10.494
9.6971
9.4485
8.3646
6.6217
6.8153
7.8787
8.7763
9.3802
10.455
10.489
9.6959
9.4455
8.3564
6.613
6.8126
7.8655
8.7648
9.3719
10.453
10.485
9.6876
9.4347
8.3539
6.6099
6.8079
7.877
8.771
9.3713
10.44
10.474
9.6827
9.4351
8.3443
6.6055
6.8026
7.8664
8.767
9.3721
10.445
10.479
9.6831
9.4338
8.3463
6.6058
6.8011
7.8691
8.7664
9.3718
10.443
10.474
9.6818
9.4347
8.3425
6.6028
6.8022
7.8689
8.7638
9.3637
10.439
10.474
9.6769
9.4291
8.3424
6.6103
6.8153
7.8826
8.7837
9.3867
10.462
10.487
9.6981
9.4503
8.3671
6.6322
6.8323
7.8981
8.7923
9.3928
10.461
10.484
9.691
9.4408
8.3443
6.6119
6.8171
7.8845
8.7788
9.3768
10.445
10.468
9.6659
9.4214
8.3324
6.5951
6.8023
7.8755
8.7702
9.3678
10.437
10.469
9.6775
9.4238
8.3317
6.5964
6.8008
7.8592
8.7521
9.3547
10.421
10.449
9.6586
9.4177
8.3286
6.5945
6.7963
7.8539
8.7473
9.3534
10.434
10.461
9.6636
9.415
8.3233
6.5866
6.7939
7.8579
8.7532
9.3606
10.44
10.465
9.669
9.4217
8.3284
6.5903
6.7991
7.8703
8.772
9.3788
10.47
10.511
9.7403
9.5224
8.4578
6.77
7.0405
8.1731
9.1397
9.8306
11.027
11.109
10.303
10.029
8.8788
7.0824
7.2178
8.2317
9.0757
9.6734
10.752
10.642
9.5402
8.8643
7.5204
5.724
6.0255
7.248
8.2727
8.9747
10.147
10.222
9.4547
9.2458
8.166
6.4257
6.6565
7.762
8.6966
9.3412
10.476
10.531
9.7422
9.5037
8.3937
6.6264
6.8416
7.9353
8.8584
9.487
10.606
10.634
9.8226
9.5665
8.4464
6.6743
6.8838
7.9741
8.8965
9.5223
10.635
10.662
9.8458
9.5941
8.4707
6.6901
6.9039
7.9953
8.9194
9.5421
10.661
10.684
9.865
9.6066
8.4819
6.7102
6.9258
8.0202
8.9445
9.5728
10.693
10.71
9.8949
9.6438
8.5186
6.7412
6.9614
8.0565
8.9817
9.6075
10.726
10.747
9.9355
9.6835
8.5566
6.7836
7.0012
8.1004
9.0259
9.6555
10.771
10.795
9.9873
9.7325
8.6088
6.8356
7.0571
8.1326
9.0618
9.7058
10.842
10.853
10.039
9.7794
8.6605
6.8908
7.1095
8.1997
9.1231
9.7533
10.873
10.894
10.08
9.8215
8.6931
6.9206
7.1382
8.228
9.1466
9.7737
10.887
10.899
10.08
9.8196
8.6834
6.9118
7.1245
8.2113
9.1204
9.7396
10.854
10.861
10.039
9.773
8.6366
6.8671
7.0767
8.1528
9.0628
9.6825
10.785
10.791
9.9644
9.7001
8.5629
6.7926
7.0037
8.0777
8.9877
9.6107
10.725
10.718
9.8897
9.6326
8.5003
6.7332
6.9584
8.0321
8.9373
9.5545
10.657
10.651
9.8342
9.5831
8.4607
6.7233
6.9482
8.0155
8.9173
9.5245
10.611
10.615
9.8135
9.5616
8.4463
6.7183
6.9414
8.0172
8.9149
9.518
10.599
10.602
9.8114
9.5656
8.4472
6.7259
6.9503
8.0202
8.9183
9.5213
10.6
10.607
9.8152
9.5641
8.4529
6.7344
6.9606
8.0299
8.9213
9.5265
10.608
10.611
9.8169
9.5742
8.4613
6.7462
6.9727
8.0386
8.9261
9.5284
10.611
10.615
9.8231
9.5762
8.4631
6.7484
6.9727
8.0346
8.9259
9.5347
10.618
10.615
9.8195
9.5829
8.4652
6.7527
6.9751
8.0353
8.9251
9.5282
10.61
10.615
9.8208
9.5793
8.4636
6.7495
6.9736
8.0403
8.9271
9.5279
10.606
10.605
9.8126
9.5797
8.4639
6.7564
6.9771
8.0388
8.9254
9.5252
10.601
10.608
9.8163
9.5718
8.4576
6.7455
6.9714
8.0309
8.9196
9.5271
10.608
10.608
9.8148
9.571
8.4565
6.7502
6.972
8.0326
8.9219
9.524
10.605
10.605
9.8159
9.5788
8.4574
6.7466
6.9728
8.035
8.9269
9.5273
10.6
10.604
9.8175
9.578
8.46
6.753
6.9813
8.0414
8.929
9.5339
10.612
10.612
9.8235
9.5832
8.4674
6.7585
6.985
8.0469
8.9331
9.5385
10.618
10.615
9.8278
9.592
8.4692
6.7621
6.9908
8.0482
8.9369
9.5422
10.621
10.621
9.8316
9.5891
8.4731
6.7672
6.9931
8.0577
8.9451
9.5445
10.621
10.627
9.8463
9.6094
8.4953
6.7918
7.021
8.0745
8.9623
9.5723
10.66
10.657
9.8651
9.6288
8.507
6.8016
7.0277
8.0878
8.9661
9.5643
10.634
10.636
9.8507
9.6147
8.4961
6.792
7.0178
8.0668
8.9485
9.5505
10.632
10.632
9.8436
9.6048
8.4908
6.7883
7.0157
8.0763
8.965
9.5586
10.626
10.622
9.8337
9.5971
8.4723
6.766
6.9988
8.0514
8.9376
9.5455
10.625
10.626
9.8364
9.5951
8.4813
6.7767
7.0066
8.0652
8.9498
9.5534
10.633
10.63
9.8383
9.6049
8.487
6.7841
7.0132
8.0752
8.96
9.5658
10.643
10.64
9.8511
9.6141
8.5015
6.7976
7.0446
8.13
9.0408
9.6768
10.8
10.852
10.123
9.9558
8.9138
7.2929
7.5902
8.6676
9.5251
10.081
11.126
11.05
10.158
9.8561
8.6941
6.993
7.1302
7.9999
8.515
8.7609
9.7327
9.7916
9.1456
9.0409
8.0178
6.3859
6.6796
7.7934
8.7284
9.3781
10.504
10.53
9.7691
9.547
8.4551
6.7765
7.0279
8.1087
9.0096
9.626
10.715
10.712
9.9245
9.6923
8.5768
6.8733
7.1114
8.1771
9.0668
9.6679
10.741
10.738
9.9564
9.7198
8.6036
6.9013
7.1345
8.1989
9.0797
9.6855
10.763
10.759
9.978
9.7405
8.6158
6.9047
7.1454
8.2085
9.1014
9.7091
10.794
10.79
10.006
9.7648
8.6356
6.9113
7.1464
8.2158
9.1184
9.7453
10.857
10.86
10.052
9.811
8.6654
6.9164
7.152
8.2379
9.1544
9.7843
10.908
10.911
10.104
9.8599
8.7096
6.9529
7.1923
8.2871
9.2044
9.8395
10.963
10.964
10.156
9.9127
8.7582
7.0023
7.2422
8.3319
9.2529
9.8873
11.012
11.01
10.2
9.956
8.803
7.0432
7.2829
8.3734
9.2901
9.9229
11.044
11.03
10.216
9.9746
8.8144
7.0493
7.2865
8.3723
9.2809
9.9138
11.033
11.02
10.201
9.9482
8.7829
7.0152
7.2477
8.3363
9.242
9.8657
10.982
10.964
10.145
9.8918
8.7197
6.9472
7.1812
8.2602
9.1632
9.7897
10.907
10.887
10.059
9.8068
8.6405
6.874
7.1031
8.1919
9.0984
9.7224
10.827
10.809
9.9983
9.7456
8.5793
6.8105
7.0494
8.1346
9.0489
9.673
10.785
10.771
9.9629
9.7117
8.5484
6.7887
7.0281
8.1256
9.0368
9.6551
10.761
10.755
9.9517
9.7008
8.5364
6.7852
7.0235
8.1184
9.0368
9.6558
10.759
10.759
9.949
9.6998
8.5373
6.7809
7.018
8.1149
9.028
9.6512
10.765
10.758
9.9471
9.6955
8.5324
6.7824
7.0267
8.1171
9.0304
9.6513
10.765
10.759
9.9487
9.7008
8.5417
6.7838
7.0233
8.1136
9.0234
9.6522
10.773
10.755
9.9482
9.7005
8.5356
6.7831
7.0246
8.1117
9.0233
9.6474
10.765
10.753
9.9412
9.6961
8.5278
6.7764
7.0161
8.1112
9.0255
9.6497
10.763
10.749
9.941
9.6957
8.5217
6.7698
7.0193
8.1057
9.0155
9.6405
10.761
10.752
9.941
9.6902
8.5206
6.7714
7.0101
8.1035
9.0167
9.643
10.761
10.743
9.931
9.689
8.5165
6.7662
7.0126
8.0989
9.014
9.6395
10.757
10.744
9.936
9.6888
8.5175
6.757
7.0018
8.0958
9.0114
9.6419
10.769
10.749
9.9289
9.6878
8.5164
6.7602
7.0135
8.1064
9.0199
9.6483
10.766
10.745
9.9353
9.6892
8.5141
6.7611
7.0113
8.1031
9.0181
9.6503
10.773
10.751
9.9361
9.6897
8.5146
6.7594
7.0111
8.1057
9.0191
9.651
10.774
10.754
9.9383
9.6879
8.5108
6.7633
7.0133
8.1035
9.0173
9.6532
10.784
10.76
9.9423
9.7041
8.5365
6.7829
7.0374
8.1302
9.0431
9.6795
10.809
10.79
9.9748
9.726
8.5495
6.7932
7.0421
8.1317
9.0438
9.6756
10.794
10.769
9.9539
9.7131
8.5375
6.779
7.0285
8.1196
9.0297
9.6572
10.781
10.762
9.9479
9.7029
8.5274
6.7707
7.0245
8.1196
9.0323
9.664
10.786
10.76
9.949
9.6921
8.508
6.7551
7.0113
8.1075
9.0221
9.6562
10.784
10.76
9.9419
9.6943
8.5087
6.7512
7.0133
8.1133
9.0251
9.6599
10.783
10.758
9.9426
9.6934
8.5149
6.7596
7.0127
8.1067
9.0232
9.6589
10.791
10.768
9.9516
9.7039
8.5283
6.7749
7.0463
8.1702
9.1115
9.7738
10.942
10.975
10.222
10.046
8.941
7.2852
7.6199
8.7321
9.6356
10.228
11.328
11.234
10.323
10.005
8.7621
7.0008
7.1635
8.0571
8.5856
8.8795
9.9048
9.9423
9.2703
9.1546
8.0617
6.3832
6.695
7.8345
8.7965
9.4745
10.643
10.647
9.8472
9.6263
8.4739
6.7494
7.0336
8.1568
9.0852
9.7224
10.836
10.811
10.007
9.7623
8.5954
6.8861
7.1527
8.2363
9.1336
9.7525
10.854
10.824
10.024
9.7878
8.6304
6.9219
7.1861
8.2604
9.1487
9.7638
10.867
10.83
10.034
9.8011
8.6482
6.9529
7.211
8.284
9.1674
9.7841
10.877
10.85
10.058
9.8179
8.6716
6.9774
7.2338
8.3005
9.1872
9.8088
10.901
10.871
10.082
9.8502
8.7012
7.0082
7.2631
8.3259
9.217
9.8366
10.929
10.906
10.122
9.8845
8.7339
7.0452
7.3043
8.3668
9.2578
9.8751
10.972
10.946
10.163
9.9307
8.784
7.0952
7.3568
8.4187
9.3048
9.9189
11.01
10.985
10.204
9.9722
8.8217
7.1286
7.391
8.4492
9.3329
9.9488
11.042
11.009
10.219
9.9869
8.8282
7.1349
7.3947
8.4511
9.3327
9.9417
11.025
10.992
10.207
9.9616
8.8031
7.103
7.3566
8.4075
9.2866
9.8945
10.973
10.933
10.136
9.8966
8.7344
7.035
7.2825
8.3326
9.204
9.8077
10.885
10.847
10.054
9.8095
8.6457
6.9507
7.2009
8.2503
9.1269
9.7332
10.808
10.772
9.9823
9.7451
8.5848
6.8856
7.1404
8.1964
9.0742
9.6788
10.758
10.727
9.9358
9.7049
8.5493
6.8559
7.1078
8.167
9.0524
9.6626
10.743
10.708
9.9277
9.6915
8.536
6.8476
7.1029
8.1578
9.0398
9.6505
10.735
10.708
9.9242
9.6956
8.5461
6.8482
7.1032
8.1607
9.0449
9.6555
10.737
10.711
9.9299
9.6968
8.5421
6.8474
7.1064
8.1695
9.0556
9.657
10.737
10.711
9.9284
9.6991
8.5432
6.8493
7.107
8.1626
9.0491
9.655
10.741
10.718
9.9272
9.6908
8.5388
6.8485
7.1027
8.1637
9.0456
9.6572
10.74
10.714
9.9288
9.6927
8.5396
6.8455
7.1052
8.1664
9.0477
9.6541
10.736
10.709
9.9262
9.6893
8.5353
6.8455
7.0997
8.1544
9.0406
9.6538
10.74
10.708
9.9224
9.6883
8.5354
6.839
7.1017
8.1609
9.048
9.6543
10.74
10.71
9.9211
9.6917
8.5431
6.8469
7.1002
8.1634
9.0464
9.6535
10.735
10.71
9.9293
9.6866
8.5346
6.8441
7.1028
8.1616
9.0461
9.6538
10.737
10.708
9.9262
9.6965
8.5455
6.8525
7.1065
8.161
9.047
9.6594
10.746
10.721
9.9366
9.6998
8.5486
6.8519
7.1106
8.1756
9.057
9.6651
10.747
10.721
9.9389
9.7071
8.5522
6.8574
7.1159
8.1719
9.0577
9.6724
10.758
10.729
9.9431
9.7098
8.5622
6.8683
7.125
8.1849
9.0777
9.6942
10.785
10.759
9.9711
9.7382
8.5901
6.8994
7.15
8.2061
9.0923
9.7084
10.789
10.762
9.9746
9.733
8.5837
6.8863
7.1375
8.195
9.0834
9.694
10.779
10.752
9.9632
9.7309
8.5818
6.8817
7.135
8.1935
9.0829
9.6963
10.778
10.752
9.974
9.7321
8.5859
6.8844
7.131
8.1878
9.0712
9.6793
10.764
10.735
9.9507
9.72
8.5731
6.8747
7.1219
8.1829
9.0705
9.6761
10.759
10.741
9.9561
9.7196
8.5781
6.881
7.1266
8.1828
9.0683
9.6807
10.77
10.748
9.9682
9.7274
8.5826
6.887
7.1338
8.1924
9.0879
9.6996
10.792
10.789
10.034
9.8258
8.7137
7.0621
7.3676
8.4913
9.4488
10.14
11.32
11.355
10.568
10.297
9.1122
7.3696
7.5185
8.4891
9.2982
9.8958
10.974
10.821
9.778
9.1214
7.7385
6.0194
6.3658
7.57
8.5693
9.259
10.412
10.449
9.7145
9.5289
8.4305
6.7685
7.0374
8.1071
9.0193
9.6551
10.773
10.78
10.014
9.7919
8.6643
6.9655
7.2192
8.2802
9.1691
9.7823
10.873
10.863
10.079
9.8439
8.7064
7.0054
7.2524
8.3062
9.1969
9.8133
10.91
10.888
10.097
9.8664
8.7334
7.0306
7.2729
8.3296
9.2191
9.8325
10.924
10.911
10.124
9.8892
8.7542
7.049
7.2978
8.355
9.2461
9.863
10.956
10.941
10.153
9.9202
8.7876
7.0902
7.3277
8.3868
9.281
9.8959
10.988
10.978
10.193
9.9587
8.8259
7.1203
7.3671
8.4244
9.3176
9.936
11.027
11.019
10.237
10.001
8.8762
7.1733
7.4144
8.4796
9.3722
9.9886
11.076
11.064
10.28
10.054
8.9221
7.2191
7.462
8.5181
9.411
10.027
11.12
11.108
10.324
10.084
8.9534
7.2451
7.4805
8.541
9.4302
10.04
11.122
11.109
10.316
10.08
8.9431
7.2272
7.4656
8.5167
9.3973
10.004
11.082
11.067
10.276
10.031
8.8901
7.1729
7.4027
8.4551
9.3367
9.9381
11.013
10.996
10.205
9.9603
8.8137
7.0971
7.3288
8.3725
9.2587
9.8606
10.935
10.923
10.13
9.8878
8.7474
7.0309
7.259
8.3126
9.1975
9.8022
10.884
10.873
10.08
9.8406
8.7036
6.9892
7.2266
8.2795
9.168
9.7726
10.855
10.846
10.065
9.8257
8.6918
6.9762
7.2087
8.2682
9.159
9.7654
10.847
10.844
10.057
9.8165
8.6925
6.9799
7.2125
8.2694
9.1607
9.7694
10.859
10.852
10.062
9.8248
8.6978
6.9853
7.2181
8.2726
9.1609
9.7708
10.859
10.852
10.066
9.828
8.6983
6.9853
7.2143
8.2682
9.1581
9.7704
10.855
10.855
10.061
9.8246
8.6985
6.985
7.215
8.2719
9.1584
9.769
10.858
10.852
10.066
9.8265
8.6952
6.985
7.216
8.2706
9.1606
9.7701
10.851
10.853
10.063
9.8244
8.6938
6.9783
7.2111
8.2686
9.1541
9.765
10.855
10.846
10.056
9.8211
8.6903
6.9745
7.2075
8.2573
9.1485
9.7639
10.851
10.846
10.054
9.8174
8.6901
6.9715
7.2003
8.2586
9.1484
9.7578
10.841
10.838
10.055
9.8164
8.6857
6.9694
7.1993
8.2512
9.1428
9.7589
10.845
10.843
10.051
9.8173
8.6879
6.9668
7.1966
8.2504
9.1465
9.7604
10.851
10.845
10.054
9.8167
8.6855
6.967
7.2022
8.2515
9.1423
9.7544
10.85
10.847
10.05
9.8128
8.6882
6.9692
7.1997
8.2598
9.1527
9.7646
10.85
10.842
10.055
9.815
8.6863
6.9652
7.2015
8.2553
9.1459
9.7571
10.846
10.85
10.066
9.8188
8.6909
6.9781
7.2011
8.2612
9.1575
9.7717
10.868
10.869
10.081
9.8393
8.7146
6.9978
7.2299
8.2879
9.1773
9.7876
10.873
10.875
10.087
9.8413
8.7127
6.989
7.2125
8.2648
9.1577
9.7717
10.862
10.862
10.07
9.8301
8.7029
6.9701
7.1957
8.2578
9.1537
9.7656
10.852
10.855
10.068
9.8258
8.6995
6.9777
7.2044
8.2587
9.1501
9.7554
10.84
10.842
10.052
9.8138
8.6875
6.9666
7.1965
8.249
9.1423
9.7542
10.845
10.845
10.059
9.8152
8.6894
6.9665
7.1977
8.2534
9.1452
9.7566
10.847
10.846
10.056
9.8245
8.6986
6.9742
7.202
8.2613
9.1562
9.7689
10.863
10.875
10.107
9.8901
8.7948
7.1052
7.3787
8.4946
9.4484
10.135
11.309
11.404
10.658
10.415
9.2556
7.4838
7.6673
8.63
9.4424
9.9873
11.065
11.05
10.129
9.613
8.0757
6.1272
6.3433
7.5081
8.5442
9.2656
10.438
10.499
9.7609
9.5752
8.4984
6.8167
7.0785
8.1576
9.0638
9.7012
10.825
10.854
10.086
9.8615
8.7525
7.0384
7.2675
8.3348
9.2297
9.8462
10.941
10.945
10.158
9.9246
8.8008
7.0816
7.3057
8.3668
9.261
9.8725
10.959
10.97
10.184
9.9477
8.8239
7.1018
7.3278
8.3833
9.2788
9.8906
10.98
10.986
10.201
9.9645
8.8479
7.1272
7.3467
8.4071
9.3013
9.9158
11.005
11.019
10.235
9.9929
8.8757
7.1498
7.3734
8.433
9.3287
9.9475
11.039
11.051
10.267
10.032
8.9173
7.1909
7.4142
8.4713
9.3691
9.9863
11.079
11.096
10.312
10.074
8.966
7.2408
7.4608
8.5292
9.4308
10.038
11.124
11.145
10.364
10.127
9.0158
7.286
7.5052
8.5629
9.4633
10.079
11.171
11.179
10.394
10.157
9.0439
7.3128
7.5266
8.5817
9.4748
10.084
11.178
11.186
10.395
10.151
9.036
7.2977
7.5096
8.5615
9.4549
10.061
11.147
11.151
10.354
10.107
8.9834
7.2446
7.4574
8.5091
9.3958
9.9938
11.075
11.082
10.283
10.033
8.9131
7.1746
7.3746
8.4221
9.3109
9.9147
10.999
11.006
10.209
9.9626
8.8497
7.1022
7.3066
8.3525
9.2432
9.85
10.933
10.945
10.15
9.9049
8.7943
7.0503
7.261
8.311
9.2018
9.8171
10.913
10.925
10.126
9.886
8.7831
7.0368
7.2419
8.2981
9.1951
9.8032
10.895
10.912
10.119
9.8808
8.775
7.0333
7.2381
8.29
9.1867
9.8009
10.895
10.917
10.123
9.8811
8.7795
7.0364
7.2411
8.293
9.1938
9.8047
10.894
10.924
10.128
9.8851
8.786
7.0458
7.2492
8.2985
9.1934
9.8037
10.894
10.922
10.127
9.8813
8.7849
7.0388
7.2405
8.2908
9.1899
9.8001
10.891
10.923
10.129
9.8801
8.7802
7.0343
7.2373
8.2901
9.1889
9.8014
10.894
10.92
10.127
9.8755
8.7762
7.0345
7.2378
8.2949
9.1933
9.7974
10.882
10.912
10.118
9.878
8.7778
7.0331
7.2325
8.2864
9.1813
9.7888
10.878
10.913
10.121
9.8718
8.7788
7.0329
7.2294
8.2808
9.1776
9.7867
10.877
10.912
10.117
9.8738
8.7787
7.0271
7.2258
8.2758
9.1741
9.7815
10.866
10.91
10.118
9.8699
8.7772
7.0222
7.2237
8.2689
9.1656
9.7758
10.866
10.905
10.105
9.8601
8.7689
7.0181
7.2105
8.265
9.168
9.7744
10.856
10.901
10.11
9.8628
8.7737
7.0172
7.207
8.2608
9.1646
9.771
10.856
10.898
10.11
9.8586
8.7709
7.013
7.2027
8.2565
9.1591
9.7799
10.874
10.918
10.124
9.8691
8.7892
7.0377
7.2274
8.2799
9.1805
9.7951
10.884
10.928
10.133
9.879
8.7945
7.0334
7.2135
8.2588
9.1615
9.7762
10.866
10.906
10.114
9.8543
8.771
7.0107
7.1906
8.2407
9.1507
9.7664
10.858
10.905
10.103
9.8546
8.7789
7.0126
7.1907
8.2397
9.1356
9.7503
10.838
10.889
10.089
9.8413
8.7653
7.0013
7.1844
8.2377
9.1382
9.7447
10.84
10.885
10.089
9.8364
8.7595
6.9982
7.1831
8.2329
9.136
9.7503
10.841
10.891
10.093
9.8423
8.7723
7.0044
7.1813
8.239
9.1449
9.757
10.848
10.906
10.129
9.9084
8.865
7.1416
7.3686
8.4745
9.4403
10.119
11.289
11.454
10.722
10.467
9.3746
7.5732
7.7231
8.6984
9.5284
10.062
11.115
11.151
10.231
9.7082
8.2254
6.2199
6.36
7.5056
8.5498
9.2665
10.426
10.545
9.799
9.5886
8.5665
6.8394
7.0437
8.1223
9.0418
9.6699
10.777
10.859
10.086
9.8584
8.8125
7.0582
7.2301
8.2937
9.2014
9.8141
10.904
10.969
10.176
9.9268
8.8676
7.1006
7.2649
8.3225
9.232
9.8416
10.93
10.995
10.204
9.9509
8.8855
7.1181
7.2881
8.3362
9.2429
9.8539
10.949
11.014
10.222
9.9645
8.9098
7.1412
7.3007
8.3599
9.2695
9.8791
10.967
11.033
10.245
9.9948
8.9368
7.1642
7.3354
8.3912
9.2995
9.9101
10.998
11.067
10.28
10.029
8.9714
7.2028
7.3671
8.4238
9.3342
9.947
11.038
11.115
10.321
10.07
9.0204
7.2472
7.4133
8.4715
9.3883
9.9942
11.08
11.159
10.37
10.118
9.066
7.2929
7.4527
8.5107
9.4257
10.033
11.123
11.197
10.404
10.15
9.0914
7.3134
7.4737
8.5224
9.4319
10.039
11.126
11.198
10.395
10.138
9.0869
7.3057
7.4568
8.5086
9.4115
10.01
11.09
11.162
10.361
10.101
9.0372
7.2491
7.397
8.4395
9.3447
9.9485
11.026
11.097
10.293
10.028
8.9722
7.183
7.3237
8.372
9.2726
9.8772
10.955
11.025
10.221
9.9592
8.9042
7.1191
7.2637
8.3066
9.2153
9.8217
10.901
10.976
10.174
9.9115
8.8606
7.075
7.2228
8.2737
9.1798
9.7887
10.87
10.944
10.149
9.8894
8.8361
7.0528
7.2029
8.254
9.1642
9.7785
10.865
10.943
10.144
9.8849
8.8421
7.0532
7.2009
8.2581
9.1678
9.7751
10.863
10.942
10.144
9.8871
8.8389
7.057
7.2054
8.245
9.1604
9.7752
10.874
10.953
10.152
9.8926
8.8531
7.064
7.2115
8.2637
9.1742
9.7865
10.874
10.954
10.158
9.9024
8.8609
7.0662
7.2152
8.2631
9.177
9.7924
10.883
10.963
10.165
9.8976
8.8596
7.0746
7.2183
8.2661
9.1834
9.7929
10.883
10.961
10.162
9.905
8.8629
7.073
7.2133
8.2555
9.175
9.7883
10.878
10.963
10.163
9.9043
8.8668
7.072
7.2054
8.2552
9.1705
9.782
10.869
10.958
10.16
9.8986
8.8602
7.0671
7.2053
8.2506
9.1663
9.7772
10.866
10.956
10.161
9.8952
8.8593
7.0651
7.2017
8.2542
9.1677
9.7751
10.859
10.953
10.158
9.8937
8.8617
7.0665
7.2013
8.2475
9.1628
9.7737
10.871
10.962
10.163
9.8977
8.8633
7.0675
7.2006
8.2527
9.1707
9.7788
10.866
10.96
10.16
9.8982
8.8636
7.0692
7.2068
8.2517
9.1694
9.7834
10.87
10.963
10.162
9.9003
8.8658
7.0732
7.2043
8.2501
9.1683
9.7868
10.882
10.982
10.185
9.9241
8.9004
7.0947
7.2287
8.2746
9.1957
9.8132
10.907
11
10.197
9.9272
8.8978
7.0929
7.2213
8.2634
9.178
9.7918
10.888
10.988
10.182
9.9123
8.8846
7.0792
7.2076
8.2531
9.1733
9.7882
10.879
10.985
10.179
9.9127
8.8935
7.0934
7.2133
8.261
9.1772
9.7848
10.868
10.963
10.163
9.8976
8.8699
7.0662
7.1978
8.2449
9.1631
9.7768
10.862
10.962
10.163
9.9071
8.8882
7.0822
7.2007
8.2551
9.1712
9.7887
10.858
10.966
10.168
9.902
8.881
7.0797
7.2014
8.2548
9.1719
9.7949
10.876
10.991
10.188
9.9373
8.9535
7.1736
7.3198
8.4192
9.4041
10.09
11.227
11.418
10.716
10.512
9.4948
7.6545
7.7311
8.7437
9.5837
10.109
11.107
11.191
10.388
10.005
8.7645
6.5491
6.3788
7.3801
8.3948
9.1476
10.34
10.536
9.8024
9.5892
8.634
6.874
7.0351
8.1173
9.0753
9.6977
10.8
10.945
10.173
9.9197
8.9388
7.1439
7.2633
8.3183
9.2525
9.8616
10.948
11.069
10.266
10
9.0038
7.1906
7.3053
8.3588
9.2894
9.8912
10.971
11.094
10.289
10.032
9.0288
7.2144
7.3283
8.3756
9.3038
9.9142
11.004
11.115
10.31
10.047
9.0491
7.2349
7.3455
8.4014
9.3321
9.9365
11.015
11.142
10.344
10.079
9.0811
7.2679
7.3773
8.425
9.3538
9.9668
11.049
11.173
10.376
10.114
9.1188
7.3013
7.4111
8.4634
9.3939
10.003
11.087
11.22
10.422
10.153
9.159
7.3486
7.4567
8.5107
9.4406
10.05
11.135
11.264
10.467
10.203
9.2107
7.3924
7.4941
8.5458
9.477
10.089
11.174
11.315
10.522
10.25
9.2523
7.4346
7.5287
8.5703
9.5021
10.115
11.202
11.33
10.52
10.246
9.2529
7.4235
7.5176
8.5659
9.4857
10.087
11.161
11.295
10.486
10.208
9.2096
7.3812
7.4701
8.5034
9.4229
10.025
11.102
11.232
10.418
10.141
9.1443
7.3084
7.3906
8.4296
9.3506
9.9469
11.012
11.152
10.341
10.062
9.0662
7.2354
7.3193
8.3562
9.2826
9.8849
10.961
11.096
10.287
10.01
9.0228
7.1896
7.2711
8.3118
9.2404
9.8455
10.925
11.066
10.263
9.9832
8.9981
7.1688
7.2529
8.2953
9.2262
9.8346
10.913
11.061
10.258
9.9823
8.9974
7.1661
7.2496
8.2937
9.2217
9.832
10.907
11.058
10.26
9.9804
9.0005
7.1662
7.2492
8.2974
9.2241
9.8343
10.912
11.06
10.258
9.9772
8.9988
7.1709
7.2485
8.2921
9.2236
9.8318
10.906
11.058
10.259
9.9798
9.006
7.1729
7.2497
8.2881
9.2211
9.8273
10.91
11.062
10.263
9.9801
9.0059
7.1748
7.2469
8.2834
9.2148
9.8227
10.906
11.061
10.255
9.9796
9.0091
7.168
7.2395
8.279
9.214
9.8191
10.899
11.06
10.256
9.9747
9.0042
7.1661
7.2368
8.272
9.2031
9.8137
10.895
11.054
10.247
9.9729
9.007
7.1568
7.228
8.2723
9.2057
9.8115
10.888
11.051
10.248
9.9664
8.9968
7.1522
7.2218
8.264
9.1951
9.8088
10.889
11.049
10.243
9.9613
8.9935
7.1476
7.2176
8.2578
9.1957
9.8059
10.887
11.045
10.241
9.9622
8.9941
7.1548
7.2163
8.2566
9.1848
9.7984
10.879
11.041
10.239
9.9604
8.9987
7.1482
7.2113
8.2523
9.1868
9.7982
10.885
11.052
10.25
9.9754
9.0165
7.1669
7.2271
8.2679
9.2029
9.8202
10.904
11.07
10.268
9.9769
9.0209
7.1662
7.2213
8.263
9.1945
9.8
10.872
11.048
10.245
9.9705
9.0071
7.1547
7.2058
8.2447
9.1749
9.7824
10.862
11.041
10.234
9.9432
8.9889
7.1427
7.2088
8.2516
9.187
9.7831
10.858
11.025
10.217
9.9348
8.978
7.1254
7.1841
8.2333
9.1768
9.7934
10.842
11.019
10.217
9.9274
8.9784
7.1276
7.1812
8.2209
9.1661
9.7867
10.848
11.021
10.221
9.9299
8.9805
7.1332
7.1792
8.2226
9.1742
9.803
10.838
11.023
10.223
9.9415
8.9981
7.1632
7.239
8.3052
9.3079
9.9554
11.078
11.322
10.587
10.387
9.562
7.7744
7.8188
8.8296
9.7514
10.323
11.314
11.421
10.54
10.212
9.2501
7.2476
7.0024
7.6272
8.3499
8.9242
10.098
10.421
9.723
9.5098
8.63
6.8258
6.9151
7.9996
8.9793
9.6184
10.717
10.921
10.137
9.8722
8.9645
7.1246
7.1867
8.243
9.1952
9.8038
10.887
11.081
10.281
10
9.0698
7.2145
7.2509
8.2921
9.237
9.8396
10.913
11.109
10.307
10.022
9.0951
7.234
7.2722
8.3096
9.2543
9.8602
10.938
11.132
10.329
10.041
9.1102
7.2542
7.2888
8.3243
9.2673
9.8812
10.956
11.15
10.347
10.065
9.1416
7.2788
7.3101
8.3525
9.3013
9.9113
10.977
11.176
10.372
10.089
9.1649
7.3083
7.3392
8.3763
9.3282
9.9402
11.011
11.214
10.409
10.122
9.2091
7.3486
7.3835
8.4208
9.3771
9.9869
11.059
11.264
10.461
10.171
9.257
7.402
7.4295
8.4636
9.4139
10.023
11.104
11.305
10.499
10.207
9.3004
7.4334
7.4551
8.492
9.4397
10.042
11.111
11.312
10.502
10.212
9.3005
7.4303
7.4451
8.4749
9.4154
10.018
11.083
11.286
10.474
10.175
9.2621
7.3896
7.3961
8.4253
9.3614
9.9565
11.02
11.226
10.409
10.109
9.1889
7.313
7.321
8.343
9.2807
9.8786
10.941
11.146
10.336
10.028
9.1124
7.2381
7.2447
8.2701
9.2094
9.8114
10.872
11.081
10.27
9.9712
9.0622
7.1867
7.1926
8.221
9.1643
9.7697
10.836
11.052
10.247
9.9423
9.0396
7.1668
7.172
8.2026
9.1472
9.7533
10.821
11.041
10.234
9.9418
9.0401
7.1658
7.1719
8.2021
9.1502
9.7582
10.818
11.044
10.244
9.9477
9.0496
7.1771
7.1786
8.2097
9.159
9.7635
10.832
11.052
10.247
9.9499
9.0511
7.1811
7.1854
8.2149
9.1666
9.7704
10.832
11.057
10.258
9.9596
9.0621
7.189
7.1892
8.2208
9.169
9.7768
10.834
11.065
10.264
9.9613
9.0716
7.1982
7.1933
8.2235
9.1709
9.7732
10.833
11.064
10.262
9.9602
9.0685
7.1994
7.1926
8.2198
9.166
9.7711
10.833
11.066
10.258
9.9599
9.075
7.1951
7.1896
8.2174
9.1644
9.7704
10.835
11.07
10.264
9.9613
9.0782
7.2044
7.1976
8.2326
9.1774
9.7748
10.835
11.075
10.276
9.9706
9.092
7.2238
7.2099
8.237
9.1832
9.788
10.847
11.088
10.283
9.9819
9.1088
7.2387
7.2272
8.2563
9.1995
9.7989
10.85
11.088
10.291
9.9919
9.114
7.2502
7.2375
8.2504
9.1944
9.8042
10.855
11.097
10.298
9.993
9.1276
7.2633
7.2466
8.2626
9.2034
9.805
10.86
11.105
10.308
10.008
9.1494
7.2847
7.2666
8.275
9.2182
9.8259
10.879
11.125
10.324
10.014
9.1494
7.2825
7.255
8.2676
9.2015
9.7967
10.841
11.089
10.295
9.9887
9.1215
7.2503
7.2222
8.2343
9.1727
9.7725
10.819
11.07
10.276
9.9674
9.1064
7.239
7.2169
8.2298
9.1679
9.7613
10.805
11.041
10.246
9.9392
9.079
7.205
7.176
8.1904
9.1394
9.7358
10.791
11.037
10.235
9.9252
9.0692
7.197
7.1611
8.1884
9.139
9.7376
10.786
11.038
10.244
9.9374
9.076
7.2025
7.1723
8.1941
9.1417
9.7458
10.797
11.056
10.262
9.9561
9.1051
7.2378
7.2251
8.2763
9.2631
9.9164
11.021
11.334
10.603
10.377
9.615
7.8112
7.7889
8.7887
9.699
10.28
11.252
11.435
10.574
10.215
9.3611
7.377
7.1295
7.7392
8.3787
8.9078
10.027
10.423
9.7518
9.5246
8.7352
6.9026
6.9113
7.9775
8.9752
9.6236
10.702
10.981
10.205
9.9196
9.0966
7.2353
7.2071
8.2408
9.2083
9.8241
10.88
11.152
10.358
10.054
9.206
7.3231
7.2781
8.2999
9.2565
9.868
10.916
11.188
10.392
10.082
9.2307
7.3491
7.2991
8.3186
9.2747
9.8845
10.931
11.202
10.406
10.101
9.2512
7.3661
7.3171
8.3336
9.2921
9.8999
10.951
11.225
10.427
10.116
9.2698
7.3875
7.3352
8.3572
9.3166
9.9244
10.978
11.254
10.458
10.141
9.2982
7.4118
7.3567
8.3811
9.3464
9.962
11.011
11.291
10.496
10.185
9.3387
7.4518
7.3953
8.4201
9.3875
10.008
11.051
11.339
10.547
10.237
9.3919
7.5006
7.4422
8.4657
9.4359
10.056
11.094
11.385
10.587
10.271
9.4262
7.5328
7.4704
8.4935
9.463
10.072
11.115
11.403
10.6
10.281
9.4349
7.5345
7.4605
8.4778
9.4401
10.045
11.088
11.379
10.575
10.245
9.4006
7.4937
7.4179
8.4331
9.397
9.9911
11.028
11.312
10.506
10.188
9.3399
7.4283
7.3428
8.354
9.3114
9.9162
10.956
11.249
10.439
10.111
9.2724
7.3611
7.2777
8.2897
9.2471
9.8528
10.901
11.193
10.385
10.063
9.2223
7.3116
7.2271
8.2396
9.2039
9.8118
10.86
11.166
10.364
10.037
9.2058
7.2948
7.2077
8.2272
9.1947
9.8049
10.851
11.156
10.359
10.034
9.2041
7.2921
7.2049
8.2247
9.1907
9.8043
10.846
11.155
10.358
10.035
9.2035
7.2885
7.1996
8.2234
9.2
9.8144
10.851
11.158
10.357
10.038
9.206
7.293
7.2075
8.2235
9.1939
9.8129
10.857
11.169
10.37
10.036
9.2151
7.3014
7.2111
8.2348
9.2076
9.8146
10.853
11.173
10.371
10.042
9.2189
7.3019
7.2079
8.2312
9.2094
9.8167
10.857
11.177
10.375
10.039
9.2206
7.2997
7.2054
8.226
9.2003
9.8123
10.86
11.175
10.37
10.043
9.2264
7.302
7.2001
8.2209
9.195
9.805
10.847
11.173
10.371
10.039
9.2239
7.2978
7.1946
8.2141
9.1888
9.8038
10.851
11.175
10.366
10.035
9.2267
7.2962
7.1865
8.2099
9.1863
9.8005
10.849
11.179
10.371
10.035
9.2242
7.288
7.1797
8.2094
9.1877
9.806
10.858
11.187
10.373
10.038
9.2232
7.2862
7.1714
8.2081
9.192
9.8092
10.862
11.191
10.382
10.043
9.2257
7.2694
7.1536
8.1908
9.192
9.8216
10.888
11.229
10.411
10.073
9.2554
7.284
7.1635
8.2124
9.2146
9.843
10.91
11.257
10.434
10.082
9.255
7.2734
7.1471
8.1911
9.1977
9.8292
10.899
11.245
10.416
10.064
9.2429
7.2535
7.1235
8.172
9.18
9.8187
10.893
11.243
10.418
10.069
9.2546
7.2569
7.1233
8.1691
9.1775
9.8088
10.878
11.234
10.409
10.054
9.2346
7.2386
7.1051
8.156
9.1746
9.8112
10.883
11.24
10.414
10.058
9.2427
7.2414
7.1019
8.1576
9.176
9.8118
10.89
11.252
10.425
10.069
9.2534
7.2458
7.1035
8.1578
9.1787
9.8214
10.903
11.273
10.446
10.113
9.3289
7.3469
7.2383
8.343
9.4253
10.13
11.283
11.737
11.009
10.69
9.8656
7.8178
7.6366
8.6446
9.5752
10.147
11.157
11.511
10.627
10.109
8.9885
6.563
6.2267
7.301
8.4462
9.2279
10.412
10.863
10.093
9.7915
9.0342
7.0595
6.9501
8.0423
9.0847
9.7502
10.858
11.26
10.451
10.109
9.3205
7.3171
7.1707
8.235
9.2649
9.9067
10.991
11.372
10.542
10.191
9.3851
7.3665
7.208
8.2623
9.2933
9.9419
11.02
11.404
10.572
10.21
9.4118
7.3929
7.2317
8.2854
9.3141
9.9592
11.045
11.425
10.591
10.231
9.4323
7.4138
7.2535
8.3061
9.3335
9.9815
11.066
11.449
10.62
10.256
9.4598
7.4363
7.275
8.3294
9.3613
10.009
11.097
11.486
10.654
10.294
9.4974
7.4751
7.3078
8.365
9.4023
10.049
11.131
11.527
10.704
10.332
9.5389
7.522
7.3606
8.4194
9.4559
10.098
11.176
11.573
10.744
10.379
9.5909
7.5724
7.4044
8.457
9.4897
10.136
11.215
11.607
10.782
10.41
9.6222
7.6022
7.4273
8.4749
9.5024
10.153
11.225
11.616
10.784
10.41
9.6171
7.5978
7.4194
8.4587
9.4827
10.127
11.189
11.58
10.748
10.372
9.5782
7.5486
7.3627
8.3992
9.4195
10.062
11.126
11.514
10.676
10.298
9.502
7.4723
7.2839
8.3152
9.3368
9.9765
11.046
11.437
10.6
10.223
9.4332
7.4
7.2133
8.2549
9.2807
9.9157
10.976
11.379
10.548
10.176
9.3863
7.358
7.1663
8.2046
9.2325
9.8776
10.945
11.352
10.527
10.152
9.3723
7.3432
7.1506
8.1925
9.2227
9.8657
10.934
11.344
10.523
10.147
9.3695
7.3475
7.1536
8.1932
9.2276
9.8668
10.933
11.343
10.526
10.147
9.3717
7.3511
7.1504
8.1907
9.2221
9.8628
10.932
11.348
10.522
10.141
9.3691
7.3496
7.1466
8.1819
9.2158
9.868
10.935
11.346
10.518
10.135
9.3673
7.3456
7.1465
8.1904
9.2211
9.8718
10.927
11.341
10.518
10.139
9.3655
7.3405
7.1408
8.1822
9.2125
9.862
10.919
11.34
10.511
10.131
9.3618
7.3433
7.1341
8.1798
9.2143
9.8553
10.913
11.333
10.506
10.128
9.356
7.3409
7.1332
8.1677
9.2001
9.8469
10.914
11.333
10.506
10.121
9.3612
7.3333
7.1212
8.1576
9.1928
9.8382
10.902
11.323
10.501
10.122
9.3598
7.3316
7.1175
8.1497
9.1806
9.8272
10.9
11.32
10.493
10.109
9.3576
7.3341
7.1127
8.1444
9.1759
9.8241
10.892
11.325
10.498
10.117
9.3613
7.3285
7.1093
8.1403
9.1716
9.8237
10.892
11.319
10.501
10.121
9.3728
7.3451
7.1222
8.1562
9.1882
9.8418
10.908
11.344
10.523
10.138
9.3864
7.356
7.1313
8.1601
9.1897
9.8325
10.89
11.322
10.5
10.118
9.3721
7.3399
7.1097
8.1376
9.1672
9.8202
10.873
11.31
10.487
10.109
9.3648
7.332
7.101
8.1326
9.1694
9.8224
10.868
11.306
10.485
10.093
9.3481
7.3184
7.0778
8.1179
9.1579
9.8032
10.853
11.296
10.48
10.093
9.3434
7.3128
7.0769
8.1117
9.1571
9.7994
10.848
11.3
10.483
10.091
9.3517
7.3173
7.0773
8.1099
9.1584
9.7983
10.852
11.301
10.483
10.094
9.3666
7.3287
7.0925
8.1391
9.2131
9.8885
10.974
11.48
10.72
10.393
9.7312
7.7789
7.6424
8.7433
9.7909
10.421
11.447
11.873
10.981
10.531
9.7275
7.6436
7.3697
8.2673
9.0315
9.2562
10.057
10.479
9.7455
9.4874
8.8706
6.9099
6.726
7.8058
8.8886
9.5815
10.663
11.148
10.348
9.9773
9.2808
7.2876
7.0786
8.1163
9.1624
9.8204
10.872
11.329
10.522
10.142
9.4318
7.4274
7.1899
8.2151
9.2421
9.8783
10.919
11.369
10.557
10.171
9.4625
7.4556
7.2157
8.2362
9.2613
9.8991
10.95
11.393
10.577
10.195
9.4845
7.475
7.2291
8.2507
9.2808
9.9195
10.962
11.411
10.598
10.218
9.5064
7.4977
7.259
8.2741
9.3017
9.9449
10.988
11.444
10.628
10.248
9.5506
7.5361
7.2874
8.3168
9.3466
9.9826
11.016
11.476
10.67
10.288
9.5856
7.5727
7.325
8.3483
9.3827
10.028
11.07
11.54
10.731
10.338
9.6357
7.6197
7.3662
8.393
9.4369
10.077
11.114
11.586
10.778
10.392
9.6867
7.6364
7.3714
8.4059
9.4549
10.105
11.157
11.631
10.807
10.408
9.6987
7.6402
7.3641
8.3931
9.4454
10.091
11.146
11.621
10.796
10.383
9.6687
7.6067
7.3345
8.3482
9.393
10.047
11.096
11.571
10.741
10.336
9.6207
7.5467
7.2505
8.2826
9.3308
9.9749
11.018
11.499
10.665
10.253
9.5474
7.4732
7.18
8.2087
9.2562
9.9048
10.948
11.444
10.62
10.205
9.4853
7.4226
7.1287
8.1453
9.2075
9.8661
10.909
11.39
10.579
10.165
9.4648
7.3859
7.0905
8.1203
9.1693
9.8296
10.886
11.384
10.558
10.138
9.453
7.3764
7.0836
8.1095
9.1623
9.8258
10.889
11.391
10.555
10.139
9.4529
7.3841
7.0817
8.109
9.1744
9.8309
10.882
11.385
10.559
10.153
9.4575
7.3873
7.0858
8.113
9.1651
9.8368
10.904
11.409
10.569
10.156
9.4788
7.3989
7.0906
8.1221
9.1788
9.8464
10.906
11.411
10.597
10.172
9.4854
7.3999
7.1053
8.1326
9.1919
9.8527
10.913
11.432
10.603
10.18
9.4884
7.4119
7.1005
8.1236
9.1902
9.8599
10.918
11.435
10.609
10.176
9.5017
7.4217
7.1017
8.1284
9.1984
9.8619
10.909
11.429
10.602
10.181
9.4818
7.4124
7.0946
8.1242
9.1941
9.8576
10.901
11.42
10.606
10.182
9.4933
7.409
7.0888
8.1124
9.1745
9.8455
10.909
11.43
10.591
10.172
9.4909
7.4058
7.0819
8.1128
9.1749
9.8373
10.891
11.415
10.597
10.171
9.4811
7.3985
7.0669
8.1007
9.1754
9.8382
10.891
11.414
10.598
10.176
9.4863
7.4146
7.083
8.1155
9.1883
9.8541
10.894
11.428
10.612
10.192
9.5225
7.4483
7.1066
8.129
9.1988
9.8642
10.902
11.429
10.613
10.186
9.5014
7.4241
7.0854
8.1137
9.1868
9.8512
10.882
11.418
10.6
10.172
9.4986
7.4138
7.0725
8.1059
9.1743
9.8384
10.892
11.426
10.613
10.178
9.4918
7.4095
7.0633
8.0878
9.1617
9.8294
10.871
11.401
10.591
10.169
9.4964
7.4138
7.0557
8.0839
9.1668
9.8389
10.872
11.408
10.606
10.178
9.4968
7.4147
7.059
8.0805
9.1625
9.8401
10.869
11.416
10.607
10.173
9.5082
7.4187
7.0626
8.0874
9.1746
9.8548
10.898
11.47
10.693
10.296
9.6666
7.6341
7.3384
8.4279
9.5827
10.355
11.477
12.038
11.193
10.694
9.9885
7.8391
7.3854
8.341
9.3641
10.032
10.946
11.277
10.073
9.3177
8.5831
6.6169
6.4233
7.5602
8.6963
9.4197
10.496
11.087
10.35
9.9851
9.3748
7.3801
7.0512
8.0562
9.123
9.8115
10.834
11.389
10.61
10.206
9.5914
7.5798
7.2233
8.2019
9.2568
9.8928
10.892
11.44
10.661
10.253
9.6197
7.6156
7.2527
8.2236
9.2605
9.9157
10.916
11.456
10.68
10.258
9.646
7.6464
7.2734
8.2462
9.2857
9.9326
10.921
11.473
10.703
10.288
9.668
7.6643
7.2986
8.2751
9.3084
9.9545
10.939
11.495
10.725
10.315
9.6954
7.698
7.3336
8.2881
9.322
9.9823
10.976
11.526
10.756
10.346
9.7368
7.7361
7.3662
8.3303
9.366
10.017
11.008
11.567
10.803
10.385
9.7756
7.7878
7.413
8.379
9.4211
10.069
11.057
11.618
10.855
10.439
9.8325
7.8389
7.4581
8.4107
9.4542
10.105
11.091
11.65
10.882
10.466
9.8629
7.8637
7.4763
8.4289
9.4597
10.11
11.092
11.656
10.88
10.453
9.8543
7.8471
7.4552
8.3995
9.4263
10.073
11.052
11.611
10.839
10.411
9.8069
7.7979
7.3962
8.3345
9.3569
10.004
10.984
11.543
10.77
10.336
9.7307
7.7192
7.3143
8.2569
9.2797
9.928
10.917
11.48
10.699
10.266
9.6706
7.6681
7.2645
8.2062
9.232
9.8801
10.858
11.429
10.661
10.236
9.6418
7.6364
7.2306
8.174
9.2036
9.8558
10.838
11.407
10.645
10.221
9.6249
7.6266
7.228
8.1696
9.1999
9.8507
10.843
11.412
10.645
10.221
9.6336
7.6382
7.2301
8.1744
9.2032
9.8584
10.845
11.416
10.646
10.228
9.638
7.6451
7.2342
8.1735
9.2011
9.8609
10.867
11.423
10.637
10.221
9.638
7.6501
7.2438
8.1826
9.2143
9.8655
10.864
11.419
10.639
10.224
9.6496
7.6601
7.2443
8.1802
9.2123
9.862
10.829
11.412
10.658
10.228
9.6522
7.6612
7.2521
8.1878
9.2127
9.8604
10.828
11.412
10.654
10.225
9.6508
7.666
7.2494
8.1834
9.2093
9.8535
10.821
11.399
10.655
10.225
9.6465
7.6663
7.2489
8.1865
9.2059
9.8507
10.816
11.39
10.64
10.217
9.6478
7.6688
7.2486
8.1843
9.2079
9.8492
10.807
11.384
10.635
10.209
9.6395
7.6659
7.246
8.1768
9.1989
9.8427
10.796
11.374
10.624
10.203
9.6362
7.6657
7.245
8.1749
9.1955
9.8359
10.791
11.372
10.63
10.202
9.6311
7.6622
7.2448
8.1764
9.1898
9.833
10.791
11.38
10.632
10.208
9.6484
7.6839
7.2637
8.1947
9.2195
9.8616
10.815
11.398
10.65
10.226
9.6621
7.6951
7.2646
8.1943
9.2128
9.8506
10.794
11.379
10.638
10.212
9.6494
7.6768
7.2506
8.1791
9.1972
9.837
10.786
11.373
10.629
10.2
9.6429
7.6806
7.2623
8.1981
9.2133
9.8449
10.784
11.363
10.621
10.193
9.6335
7.6745
7.2515
8.1835
9.2048
9.8457
10.791
11.375
10.629
10.199
9.6443
7.684
7.2586
8.197
9.2173
9.8516
10.791
11.38
10.639
10.204
9.6455
7.6901
7.2628
8.1985
9.2223
9.8642
10.808
11.396
10.65
10.222
9.6676
7.7214
7.3235
8.2823
9.3387
10.028
11.025
11.671
10.996
10.639
10.177
8.2843
7.872
8.7826
9.7663
10.384
11.257
11.761
10.946
10.458
9.9016
7.8282
7.1991
7.7438
8.4415
8.9875
9.9978
10.73
10.116
9.77
9.2888
7.3725
6.9905
7.9737
9.0429
9.7347
10.706
11.315
10.586
10.18
9.6518
7.6979
7.2811
8.2359
9.2767
9.9268
10.883
11.484
10.739
10.309
9.7568
7.7758
7.3406
8.2769
9.312
9.9636
10.916
11.513
10.77
10.334
9.7828
7.7938
7.3546
8.2957
9.3319
9.9895
10.944
11.545
10.79
10.347
9.801
7.8098
7.3607
8.3129
9.3661
10.014
10.963
11.573
10.822
10.38
9.8263
7.8239
7.3748
8.3269
9.379
10.033
11.005
11.616
10.856
10.405
9.8545
7.8473
7.3966
8.36
9.4189
10.082
11.041
11.659
10.899
10.449
9.8941
7.8793
7.4219
8.3903
9.4588
10.134
11.099
11.723
10.961
10.51
9.9534
7.916
7.4567
8.4281
9.5032
10.184
11.148
11.781
11.011
10.551
9.9882
7.9408
7.4712
8.4462
9.5224
10.199
11.175
11.81
11.026
10.558
9.9912
7.9272
7.4456
8.421
9.5054
10.175
11.16
11.797
11.002
10.531
9.966
7.8772
7.3864
8.3649
9.4573
10.129
11.115
11.757
10.954
10.474
9.9017
7.7931
7.2983
8.2886
9.3793
10.055
11.043
11.691
10.884
10.394
9.8245
7.7137
7.2125
8.1999
9.2915
9.9838
10.982
11.636
10.831
10.341
9.7739
7.6521
7.1529
8.164
9.2806
9.9592
10.94
11.596
10.788
10.306
9.735
7.6116
7.1155
8.1338
9.2522
9.9392
10.939
11.592
10.779
10.294
9.7247
7.595
7.105
8.1167
9.2354
9.9304
10.959
11.603
10.775
10.286
9.7156
7.5881
7.0957
8.107
9.2282
9.9337
10.968
11.612
10.768
10.283
9.7222
7.5866
7.0885
8.0968
9.2258
9.9302
10.96
11.615
10.764
10.277
9.7195
7.5824
7.0758
8.0873
9.2159
9.9277
10.968
11.623
10.771
10.275
9.7263
7.5806
7.0622
8.0843
9.2219
9.92
10.957
11.618
10.766
10.271
9.7194
7.5667
7.0514
8.0719
9.2083
9.9152
10.96
11.623
10.764
10.266
9.7146
7.5566
7.0361
8.0617
9.1971
9.9068
10.955
11.619
10.76
10.261
9.7077
7.5435
7.0176
8.0502
9.1929
9.9002
10.945
11.618
10.756
10.256
9.7046
7.5257
6.9993
8.0372
9.1828
9.8955
10.941
11.613
10.755
10.248
9.6951
7.52
6.9851
8.02
9.1685
9.885
10.938
11.615
10.745
10.236
9.6917
7.5147
6.9808
8.0218
9.1728
9.8852
10.935
11.612
10.743
10.243
9.6943
7.5178
6.9868
8.0267
9.18
9.8911
10.943
11.626
10.76
10.254
9.7106
7.5432
7.005
8.0416
9.1926
9.9043
10.946
11.63
10.771
10.255
9.7079
7.5314
6.9911
8.0249
9.1746
9.8853
10.928
11.611
10.75
10.236
9.6923
7.5218
6.9704
8.0026
9.1568
9.8742
10.922
11.609
10.752
10.245
9.7012
7.5263
6.9744
7.9958
9.1395
9.8577
10.904
11.593
10.736
10.221
9.6833
7.5125
6.9683
7.9945
9.1443
9.8583
10.899
11.588
10.73
10.221
9.6878
7.5141
6.9649
7.9946
9.1455
9.8612
10.906
11.596
10.737
10.225
9.6946
7.5199
6.9639
7.9968
9.1528
9.8728
10.922
11.614
10.769
10.291
9.7861
7.6443
7.1359
8.222
9.4396
10.226
11.347
12.149
11.359
10.858
10.311
8.097
7.5079
8.463
9.5488
10.196
11.191
11.881
10.911
10.148
9.1976
6.7524
6.1345
7.241
8.5356
9.3665
10.475
11.24
10.439
9.9739
9.5011
7.3818
6.8491
7.8931
9.0582
9.7877
10.812
11.556
10.763
10.26
9.7581
7.6235
7.0616
8.0774
9.2251
9.9371
10.933
11.653
10.849
10.332
9.8183
7.6866
7.1196
8.1218
9.255
9.9622
10.965
11.672
10.857
10.349
9.8426
7.7282
7.1628
8.1522
9.2753
9.9746
10.954
11.669
10.883
10.373
9.8689
7.773
7.2067
8.1863
9.2998
9.9972
10.964
11.672
10.901
10.398
9.8976
7.8241
7.2611
8.224
9.3314
10.022
10.981
11.693
10.931
10.426
9.9376
7.8841
7.3147
8.2724
9.3707
10.061
11.012
11.719
10.966
10.466
9.9852
7.9469
7.3788
8.3267
9.418
10.107
11.052
11.755
11.007
10.511
10.024
8.005
7.4395
8.3766
9.4585
10.139
11.076
11.777
11.034
10.54
10.051
8.0256
7.4462
8.3776
9.4643
10.149
11.084
11.79
11.041
10.538
10.049
8.0175
7.4287
8.3562
9.4354
10.112
11.049
11.749
10.997
10.494
10.003
7.9733
7.3782
8.2958
9.3711
10.051
10.983
11.686
10.942
10.433
9.9414
7.9133
7.3188
8.2355
9.3035
9.9798
10.909
11.607
10.865
10.364
9.879
7.8541
7.2618
8.1708
9.2435
9.9221
10.847
11.552
10.816
10.319
9.842
7.8244
7.2297
8.1397
9.2116
9.8957
10.821
11.53
10.798
10.3
9.8265
7.8123
7.2163
8.1253
9.191
9.8799
10.819
11.53
10.791
10.29
9.8214
7.8216
7.2234
8.127
9.2052
9.8868
10.835
11.531
10.782
10.296
9.8248
7.8251
7.2291
8.1326
9.203
9.8871
10.831
11.535
10.789
10.295
9.8289
7.838
7.2355
8.1325
9.2032
9.8851
10.811
11.524
10.806
10.307
9.8372
7.8428
7.2387
8.1347
9.2005
9.8922
10.81
11.525
10.806
10.309
9.8396
7.848
7.2431
8.1404
9.2057
9.8914
10.81
11.525
10.811
10.306
9.8379
7.8542
7.2448
8.1406
9.2083
9.8894
10.803
11.518
10.804
10.3
9.8373
7.848
7.2366
8.127
9.1978
9.8744
10.794
11.511
10.797
10.297
9.8371
7.8506
7.236
8.123
9.1863
9.8626
10.784
11.501
10.792
10.29
9.8363
7.8556
7.2361
8.1227
9.1838
9.8645
10.779
11.503
10.792
10.29
9.8384
7.853
7.2313
8.1206
9.1876
9.8623
10.775
11.501
10.795
10.293
9.8365
7.8567
7.2316
8.1189
9.1787
9.8619
10.779
11.507
10.794
10.29
9.8434
7.8689
7.2501
8.14
9.2071
9.8859
10.795
11.517
10.809
10.309
9.8574
7.89
7.2804
8.17
9.227
9.8928
10.778
11.479
10.769
10.275
9.8348
7.8941
7.2866
8.1661
9.2097
9.8736
10.752
11.456
10.754
10.265
9.8284
7.898
7.2918
8.165
9.2083
9.8718
10.747
11.454
10.754
10.262
9.8241
7.8898
7.2751
8.1438
9.1848
9.8495
10.728
11.441
10.747
10.252
9.8203
7.8925
7.2804
8.1484
9.1957
9.8551
10.732
11.445
10.753
10.254
9.8219
7.8987
7.2818
8.1512
9.197
9.852
10.728
11.444
10.753
10.263
9.8339
7.9038
7.2917
8.1627
9.2089
9.8904
10.8
11.545
10.891
10.448
10.079
8.2115
7.6631
8.6238
9.7633
10.47
11.337
12.018
11.288
10.749
10.223
8.2177
7.5282
8.3805
9.3766
9.8819
10.462
10.773
9.8809
9.3973
9.0902
7.2811
6.745
7.696
8.8157
9.5552
10.512
11.303
10.646
10.169
9.761
7.7976
7.1682
8.0733
9.1755
9.8836
10.811
11.569
10.871
10.36
9.9282
7.949
7.2961
8.1823
9.2631
9.9524
10.861
11.617
10.915
10.407
9.9758
7.9835
7.3185
8.1958
9.2698
9.969
10.891
11.653
10.949
10.428
9.9978
8.0089
7.3329
8.2095
9.2935
9.9875
10.901
11.668
10.969
10.455
10.023
8.0266
7.3548
8.2352
9.3192
10.02
10.948
11.711
11.005
10.489
10.061
8.0661
7.3861
8.2717
9.3568
10.059
10.982
11.751
11.05
10.534
10.101
8.1044
7.4279
8.3093
9.3955
10.103
11.023
11.796
11.097
10.581
10.155
8.1577
7.4747
8.3575
9.4481
10.153
11.075
11.847
11.151
10.631
10.195
8.1963
7.5134
8.3872
9.4688
10.177
11.106
11.883
11.178
10.647
10.218
8.2118
7.5204
8.3972
9.4784
10.176
11.099
11.877
11.167
10.634
10.201
8.1855
7.4881
8.355
9.4258
10.135
11.06
11.834
11.12
10.575
10.139
8.1311
7.4304
8.2908
9.363
10.067
10.989
11.76
11.044
10.503
10.066
8.0496
7.3484
8.211
9.2858
9.9904
10.911
11.689
10.976
10.434
10.004
7.992
7.2814
8.1508
9.2287
9.9361
10.862
11.645
10.939
10.397
9.9699
7.9598
7.2528
8.1234
9.2046
9.92
10.846
11.632
10.926
10.385
9.9598
7.9546
7.245
8.1174
9.1958
9.9131
10.84
11.628
10.923
10.385
9.9611
7.9521
7.2472
8.1163
9.1934
9.9116
10.846
11.636
10.929
10.389
9.9688
7.9612
7.2518
8.1147
9.1973
9.9138
10.846
11.642
10.938
10.389
9.9652
7.957
7.2471
8.1143
9.2014
9.9172
10.841
11.636
10.935
10.391
9.9694
7.9616
7.2466
8.1097
9.1943
9.9172
10.851
11.651
10.938
10.386
9.967
7.9601
7.2444
8.1151
9.201
9.9157
10.84
11.638
10.934
10.393
9.9662
7.9535
7.2349
8.1069
9.1916
9.9149
10.845
11.642
10.937
10.391
9.9674
7.9525
7.2323
8.104
9.1846
9.9071
10.843
11.639
10.932
10.387
9.9674
7.9561
7.2326
8.0959
9.177
9.9043
10.846
11.639
10.931
10.381
9.964
7.9487
7.2293
8.0927
9.1764
9.8991
10.837
11.639
10.936
10.383
9.963
7.949
7.2233
8.0904
9.1774
9.9022
10.834
11.639
10.929
10.384
9.9694
7.9515
7.2235
8.0916
9.1778
9.8998
10.832
11.638
10.937
10.398
9.9792
7.9706
7.2417
8.1096
9.1915
9.918
10.854
11.66
10.965
10.41
9.9916
7.9787
7.2475
8.1099
9.1957
9.9109
10.835
11.637
10.938
10.39
9.974
7.9636
7.2371
8.0979
9.1847
9.9049
10.826
11.618
10.916
10.37
9.9524
7.9767
7.273
8.1346
9.2061
9.9061
10.803
11.583
10.888
10.351
9.941
7.9789
7.2786
8.1247
9.1856
9.8902
10.794
11.574
10.881
10.35
9.9436
7.9796
7.2712
8.1229
9.1831
9.8864
10.789
11.571
10.88
10.347
9.9441
7.9839
7.2822
8.1277
9.1846
9.8919
10.798
11.573
10.887
10.36
9.9553
7.9997
7.2982
8.1702
9.2586
9.9912
10.934
11.772
11.148
10.687
10.352
8.4866
7.8627
8.7382
9.7804
10.437
11.31
12.031
11.248
10.652
10.188
8.229
7.4358
8.1006
8.7933
9.128
9.8967
10.73
10.18
9.7918
9.4817
7.598
6.9428
7.8399
8.9454
9.6982
10.648
11.467
10.796
10.285
9.9101
7.9759
7.2875
8.1535
9.2319
9.9449
10.852
11.643
10.969
10.441
10.04
8.0832
7.376
8.2221
9.2803
9.9891
10.89
11.679
10.995
10.465
10.067
8.111
7.3978
8.2455
9.306
10.012
10.912
11.695
11.018
10.488
10.082
8.1274
7.416
8.2604
9.3207
10.032
10.929
11.722
11.036
10.503
10.109
8.1542
7.44
8.2877
9.3557
10.064
10.956
11.749
11.074
10.538
10.135
8.1903
7.475
8.3211
9.3864
10.101
10.997
11.793
11.115
10.576
10.188
8.2365
7.5154
8.3677
9.436
10.142
11.045
11.845
11.163
10.624
10.231
8.2772
7.56
8.4114
9.4768
10.184
11.095
11.895
11.202
10.667
10.277
8.3065
7.5728
8.4197
9.4959
10.211
11.129
11.948
11.251
10.698
10.298
8.2989
7.5499
8.4017
9.4851
10.203
11.117
11.933
11.238
10.676
10.269
8.2635
7.505
8.3515
9.4373
10.152
11.063
11.879
11.177
10.613
10.204
8.1915
7.4358
8.277
9.3538
10.073
10.984
11.804
11.11
10.54
10.128
8.1182
7.3497
8.1996
9.2784
10.004
10.924
11.741
11.036
10.472
10.072
8.0664
7.2996
8.1454
9.2366
9.9623
10.878
11.704
11.008
10.45
10.047
8.0367
7.271
8.1231
9.2083
9.9409
10.868
11.693
11
10.436
10.041
8.0343
7.273
8.1246
9.2145
9.9466
10.864
11.691
11.005
10.444
10.042
8.0365
7.2743
8.1233
9.2143
9.9436
10.865
11.697
11.008
10.447
10.046
8.0383
7.2709
8.1226
9.2114
9.9413
10.862
11.699
11.011
10.444
10.043
8.0402
7.2669
8.1182
9.2087
9.9404
10.866
11.704
11.015
10.446
10.044
8.0406
7.27
8.1249
9.2174
9.9462
10.866
11.704
11.012
10.448
10.053
8.0442
7.2701
8.1168
9.2104
9.9441
10.865
11.7
11.016
10.449
10.048
8.0355
7.2623
8.1164
9.2075
9.9383
10.861
11.7
11.006
10.441
10.045
8.0379
7.2601
8.1127
9.2086
9.938
10.853
11.69
11.008
10.441
10.044
8.0353
7.2516
8.1014
9.1907
9.9284
10.852
11.694
11.006
10.438
10.043
8.0379
7.2555
8.1055
9.1998
9.9344
10.851
11.693
11.004
10.435
10.044
8.0371
7.2508
8.1006
9.1931
9.9285
10.849
11.692
11.01
10.438
10.045
8.0418
7.2538
8.1038
9.1993
9.9328
10.848
11.692
11.01
10.447
10.057
8.054
7.2704
8.1226
9.2214
9.9551
10.87
11.713
11.03
10.462
10.068
8.0694
7.2805
8.1324
9.2277
9.9548
10.863
11.698
11.008
10.439
10.047
8.0635
7.2857
8.1362
9.2209
9.9441
10.846
11.666
10.972
10.416
10.033
8.0636
7.3007
8.1453
9.226
9.9521
10.847
11.66
10.967
10.413
10.022
8.0569
7.2901
8.1306
9.1983
9.9206
10.824
11.646
10.961
10.402
10.018
8.0563
7.2907
8.1337
9.2083
9.9219
10.819
11.637
10.958
10.405
10.02
8.0626
7.2994
8.1365
9.2089
9.921
10.815
11.641
10.968
10.414
10.025
8.0775
7.3159
8.1455
9.2215
9.9674
10.896
11.751
11.125
10.627
10.311
8.4325
7.7353
8.6681
9.7967
10.525
11.366
12.15
11.471
10.842
10.389
8.3852
7.5622
8.3763
9.3185
9.8083
10.264
10.799
10.085
9.6228
9.3883
7.5781
6.8846
7.7711
8.8846
9.6524
10.573
11.444
10.828
10.306
9.9489
8.0362
7.2854
8.1254
9.2119
9.9456
10.839
11.676
11.024
10.482
10.111
8.1825
7.4092
8.232
9.2967
10.01
10.892
11.718
11.061
10.516
10.141
8.2112
7.434
8.2537
9.3175
10.038
10.918
11.749
11.088
10.539
10.165
8.231
7.4517
8.2769
9.341
10.054
10.943
11.775
11.098
10.553
10.182
8.2514
7.475
8.2985
9.3609
10.077
10.969
11.797
11.137
10.586
10.21
8.2726
7.5038
8.3319
9.3966
10.115
11.001
11.833
11.177
10.629
10.258
8.3208
7.5465
8.3783
9.4473
10.165
11.053
11.882
11.226
10.679
10.307
8.3698
7.5965
8.4218
9.4884
10.209
11.108
11.937
11.268
10.718
10.344
8.4091
7.6359
8.4641
9.5262
10.242
11.129
11.962
11.292
10.738
10.359
8.4196
7.6399
8.4613
9.5203
10.236
11.122
11.95
11.277
10.716
10.339
8.391
7.6062
8.4252
9.482
10.193
11.068
11.893
11.226
10.662
10.277
8.3291
7.5397
8.3572
9.4126
10.12
10.996
11.819
11.143
10.582
10.205
8.2534
7.4621
8.2807
9.3353
10.046
10.922
11.747
11.082
10.525
10.142
8.1955
7.4055
8.2298
9.2899
10.003
10.884
11.711
11.044
10.489
10.109
8.1659
7.3791
8.2006
9.2689
9.9845
10.865
11.699
11.033
10.476
10.102
8.1583
7.3722
8.1971
9.26
9.9782
10.866
11.701
11.033
10.477
10.104
8.1624
7.3695
8.1947
9.2558
9.9799
10.868
11.705
11.035
10.475
10.107
8.1662
7.3794
8.2059
9.2707
9.9831
10.867
11.704
11.042
10.488
10.111
8.1682
7.3767
8.2022
9.2679
9.9905
10.873
11.709
11.042
10.487
10.116
8.1706
7.3839
8.2121
9.273
9.9863
10.866
11.708
11.044
10.487
10.111
8.1681
7.3786
8.2002
9.2661
9.9852
10.87
11.706
11.042
10.485
10.111
8.1724
7.3821
8.2034
9.2628
9.9791
10.865
11.702
11.041
10.483
10.109
8.1666
7.371
8.1929
9.2572
9.9799
10.866
11.702
11.038
10.482
10.108
8.1652
7.3662
8.1891
9.2529
9.9749
10.862
11.704
11.039
10.477
10.105
8.1661
7.3667
8.1905
9.2487
9.9702
10.858
11.699
11.036
10.474
10.103
8.1607
7.3647
8.1903
9.2594
9.9759
10.856
11.699
11.033
10.477
10.107
8.1632
7.3666
8.1944
9.2627
9.9807
10.86
11.698
11.036
10.476
10.102
8.1615
7.365
8.195
9.2605
9.9863
10.879
11.719
11.052
10.495
10.13
8.189
7.394
8.2237
9.294
10.007
10.884
11.72
11.05
10.493
10.118
8.1689
7.3678
8.1929
9.2608
9.983
10.864
11.701
11.035
10.473
10.101
8.1544
7.3611
8.1883
9.2551
9.9797
10.869
11.71
11.048
10.481
10.102
8.1554
7.357
8.1819
9.2524
9.971
10.853
11.695
11.03
10.469
10.096
8.1497
7.3566
8.1802
9.247
9.9672
10.853
11.691
11.032
10.473
10.095
8.1511
7.3563
8.1824
9.2509
9.9729
10.859
11.7
11.037
10.477
10.104
8.1587
7.3586
8.1834
9.2586
9.9867
10.871
11.729
11.09
10.558
10.217
8.3135
7.5669
8.4492
9.5875
10.387
11.38
12.301
11.652
11.07
10.652
8.6573
7.7592
8.5009
9.5219
10.213
11.124
11.885
11.007
10.042
9.3341
7.2516
6.4846
7.4619
8.6894
9.5189
10.492
11.416
10.795
10.269
9.9286
7.9769
7.1705
8.0256
9.1396
9.9127
10.856
11.754
11.093
10.531
10.168
8.183
7.3547
8.199
9.3
10.045
10.956
11.821
11.146
10.578
10.195
8.2134
7.4051
8.2568
9.3498
10.078
10.961
11.805
11.141
10.579
10.207
8.2574
7.4541
8.286
9.3587
10.08
10.971
11.82
11.155
10.594
10.221
8.2799
7.479
8.3097
9.3857
10.107
10.987
11.83
11.169
10.617
10.248
8.3114
7.5088
8.3399
9.4118
10.131
11.024
11.869
11.2
10.647
10.281
8.345
7.5475
8.3778
9.453
10.174
11.057
11.903
11.248
10.694
10.328
8.3926
7.5963
8.4199
9.4921
10.215
11.1
11.946
11.288
10.737
10.37
8.4316
7.6328
8.4546
9.5248
10.249
11.138
11.983
11.325
10.767
10.39
8.4525
7.6546
8.4685
9.5289
10.252
11.139
11.981
11.313
10.75
10.383
8.4349
7.6271
8.4443
9.5087
10.222
11.098
11.936
11.273
10.709
10.325
8.3727
7.5656
8.3801
9.4329
10.152
11.03
11.867
11.196
10.626
10.244
8.2942
7.4901
8.3006
9.3645
10.079
10.962
11.794
11.115
10.551
10.176
8.2263
7.4199
8.2334
9.2955
10.011
10.902
11.735
11.059
10.5
10.127
8.1817
7.3802
8.2012
9.2625
9.9814
10.87
11.708
11.039
10.483
10.108
8.1665
7.3643
8.1814
9.2463
9.9715
10.859
11.701
11.04
10.478
10.106
8.1626
7.3632
8.1813
9.2479
9.9681
10.86
11.701
11.041
10.48
10.104
8.1617
7.3648
8.1853
9.2511
9.9702
10.855
11.698
11.04
10.483
10.101
8.1579
7.3604
8.1854
9.2552
9.9729
10.854
11.697
11.039
10.479
10.103
8.1598
7.3654
8.1889
9.2538
9.9745
10.86
11.699
11.036
10.481
10.103
8.1573
7.3585
8.1817
9.2498
9.9691
10.857
11.699
11.031
10.471
10.1
8.1543
7.3553
8.1785
9.2432
9.9677
10.855
11.695
11.031
10.47
10.093
8.1458
7.3474
8.1735
9.2355
9.9582
10.848
11.688
11.023
10.467
10.093
8.1449
7.3466
8.1691
9.232
9.9534
10.846
11.687
11.025
10.465
10.09
8.1442
7.3428
8.1663
9.2328
9.9555
10.845
11.686
11.021
10.461
10.089
8.1415
7.3427
8.1662
9.2346
9.9563
10.839
11.683
11.023
10.465
10.092
8.147
7.3464
8.1662
9.23
9.9543
10.845
11.69
11.027
10.465
10.099
8.1514
7.3561
8.1853
9.2548
9.9788
10.861
11.702
11.044
10.489
10.12
8.1734
7.3738
8.1983
9.2632
9.9834
10.871
11.709
11.039
10.474
10.102
8.1538
7.3592
8.1912
9.2601
9.9742
10.856
11.69
11.02
10.466
10.094
8.1418
7.3462
8.1796
9.248
9.9673
10.854
11.698
11.037
10.474
10.093
8.1392
7.3416
8.1631
9.2282
9.95
10.839
11.683
11.019
10.457
10.083
8.1358
7.336
8.1673
9.24
9.9575
10.843
11.68
11.017
10.463
10.088
8.1371
7.3454
8.1717
9.2387
9.9603
10.847
11.682
11.021
10.472
10.095
8.143
7.3452
8.1745
9.2441
9.9733
10.872
11.737
11.098
10.57
10.238
8.3384
7.6001
8.4925
9.6348
10.446
11.427
12.311
11.641
11.048
10.64
8.6467
7.7657
8.5237
9.5255
10.235
11.067
11.748
10.753
9.7977
9.2513
7.3171
6.6395
7.603
8.7711
9.5673
10.511
11.401
10.786
10.276
9.9438
8.0277
7.2544
8.0927
9.1848
9.9338
10.846
11.712
11.068
10.524
10.158
8.2114
7.4234
8.2563
9.3286
10.049
10.94
11.783
11.115
10.567
10.2
8.2435
7.4532
8.2821
9.3525
10.078
10.967
11.806
11.143
10.591
10.223
8.2708
7.4725
8.3018
9.3767
10.094
10.978
11.817
11.161
10.61
10.235
8.2824
7.4856
8.3069
9.3785
10.107
11.001
11.844
11.185
10.63
10.261
8.3109
7.5126
8.3428
9.4202
10.141
11.028
11.875
11.214
10.666
10.297
8.3459
7.5492
8.3747
9.4516
10.176
11.071
11.921
11.265
10.711
10.343
8.3977
7.5988
8.4265
9.5037
10.229
11.122
11.975
11.315
10.755
10.382
8.434
7.64
8.4651
9.5425
10.266
11.153
11.998
11.337
10.778
10.406
8.4547
7.6492
8.4689
9.5373
10.26
11.15
11.994
11.329
10.765
10.387
8.4314
7.6211
8.4385
9.506
10.226
11.107
11.946
11.279
10.711
10.334
8.3723
7.5582
8.3746
9.4434
10.162
11.04
11.877
11.209
10.644
10.263
8.3031
7.4855
8.3012
9.3669
10.085
10.964
11.805
11.141
10.575
10.194
8.2367
7.4253
8.2394
9.3066
10.025
10.91
11.752
11.092
10.529
10.153
8.1962
7.3856
8.2016
9.2732
9.996
10.879
11.731
11.072
10.512
10.134
8.1813
7.3727
8.1921
9.2642
9.9891
10.879
11.727
11.068
10.506
10.132
8.1824
7.3694
8.1875
9.2622
9.9878
10.876
11.73
11.07
10.513
10.138
8.1864
7.3721
8.1963
9.2721
9.9974
10.886
11.738
11.08
10.515
10.144
8.1944
7.3826
8.1987
9.2681
9.996
10.885
11.739
11.081
10.518
10.15
8.2023
7.3845
8.2003
9.2718
9.9967
10.89
11.745
11.081
10.517
10.148
8.1985
7.3854
8.2027
9.2724
10.002
10.89
11.742
11.087
10.52
10.149
8.1999
7.3837
8.1997
9.2715
9.9975
10.884
11.735
11.081
10.519
10.15
8.1962
7.3799
8.1933
9.2658
9.9936
10.879
11.732
11.083
10.516
10.146
8.1942
7.3756
8.1918
9.2724
9.9951
10.874
11.727
11.084
10.52
10.145
8.1968
7.3761
8.1941
9.2723
9.996
10.875
11.733
11.081
10.516
10.147
8.1972
7.3701
8.1914
9.2738
9.997
10.884
11.738
11.085
10.521
10.151
8.2034
7.3794
8.192
9.2666
9.9972
10.885
11.748
11.092
10.528
10.166
8.22
7.3978
8.2137
9.2895
10.017
10.91
11.771
11.12
10.558
10.19
8.2339
7.4127
8.2225
9.2859
10.013
10.903
11.757
11.098
10.532
10.174
8.2254
7.3963
8.2063
9.2766
10.001
10.881
11.738
11.085
10.526
10.163
8.2109
7.3865
8.2025
9.271
10.005
10.89
11.745
11.086
10.516
10.154
8.2011
7.3716
8.1869
9.2632
9.9892
10.873
11.731
11.078
10.516
10.153
8.1992
7.3704
8.1886
9.2621
9.9924
10.877
11.74
11.092
10.523
10.158
8.2066
7.3735
8.1887
9.2696
9.9984
10.883
11.741
11.094
10.53
10.166
8.2154
7.3941
8.2141
9.304
10.06
10.979
11.873
11.273
10.766
10.467
8.5848
7.8352
8.7504
9.8771
10.611
11.469
12.289
11.599
10.942
10.499
8.4796
7.6246
8.4101
9.3411
9.8117
10.279
10.898
10.229
9.7666
9.5492
7.7143
6.96
7.8321
8.9637
9.7513
10.692
11.603
10.985
10.437
10.093
8.1658
7.3588
8.198
9.294
10.046
10.947
11.824
11.179
10.619
10.26
8.3052
7.4716
8.2943
9.3736
10.104
10.995
11.862
11.21
10.648
10.289
8.3385
7.5001
8.3168
9.3929
10.124
11.017
11.886
11.23
10.667
10.307
8.3541
7.516
8.3332
9.412
10.145
11.037
11.907
11.248
10.684
10.325
8.3779
7.5425
8.3544
9.4342
10.17
11.062
11.936
11.283
10.715
10.357
8.4104
7.5674
8.382
9.4598
10.199
11.098
11.976
11.324
10.754
10.395
8.4476
7.6085
8.4226
9.5037
10.243
11.138
12.017
11.364
10.801
10.444
8.4942
7.651
8.4743
9.5584
10.293
11.182
12.056
11.406
10.84
10.479
8.5259
7.6885
8.5048
9.5857
10.322
11.213
12.086
11.429
10.857
10.492
8.5372
7.6959
8.5058
9.5849
10.312
11.2
12.069
11.408
10.835
10.469
8.5038
7.6531
8.4635
9.5326
10.26
11.147
12.015
11.355
10.776
10.404
8.4412
7.5905
8.3991
9.4701
10.196
11.075
11.938
11.277
10.7
10.33
8.3683
7.5164
8.3174
9.3899
10.118
11.001
11.869
11.208
10.634
10.27
8.311
7.46
8.2658
9.3395
10.069
10.956
11.827
11.174
10.599
10.238
8.28
7.4316
8.2382
9.3097
10.051
10.947
11.819
11.156
10.585
10.228
8.2749
7.4267
8.2357
9.3114
10.046
10.935
11.812
11.161
10.588
10.228
8.2726
7.4237
8.2353
9.3076
10.046
10.941
11.815
11.165
10.592
10.232
8.2771
7.4289
8.2422
9.3163
10.052
10.948
11.825
11.167
10.594
10.237
8.2869
7.4383
8.2476
9.3183
10.052
10.948
11.828
11.172
10.594
10.235
8.2824
7.4324
8.2424
9.3167
10.056
10.954
11.83
11.176
10.6
10.239
8.2848
7.4364
8.2483
9.3263
10.059
10.946
11.822
11.167
10.597
10.238
8.2807
7.4276
8.2414
9.3184
10.053
10.944
11.822
11.166
10.595
10.234
8.2745
7.417
8.2346
9.3161
10.051
10.937
11.817
11.168
10.592
10.23
8.269
7.4148
8.2231
9.3008
10.041
10.944
11.823
11.162
10.586
10.225
8.2665
7.4099
8.2242
9.3055
10.043
10.936
11.817
11.164
10.586
10.225
8.2596
7.4011
8.2147
9.2993
10.043
10.937
11.825
11.167
10.59
10.231
8.2645
7.4062
8.2247
9.3095
10.056
10.958
11.843
11.185
10.606
10.246
8.2805
7.4275
8.2457
9.3267
10.071
10.969
11.852
11.197
10.614
10.248
8.2794
7.4213
8.2338
9.3166
10.059
10.951
11.834
11.177
10.598
10.233
8.2648
7.4053
8.2196
9.2987
10.045
10.948
11.831
11.175
10.593
10.238
8.2748
7.4078
8.2219
9.3036
10.04
10.929
11.811
11.157
10.58
10.221
8.2591
7.4015
8.2199
9.3002
10.036
10.924
11.808
11.155
10.584
10.229
8.2634
7.4004
8.2142
9.2975
10.037
10.931
11.812
11.159
10.585
10.227
8.2677
7.4105
8.2266
9.3114
10.051
10.949
11.83
11.179
10.624
10.289
8.3574
7.5394
8.4062
9.5469
10.345
11.3
12.261
11.709
11.19
10.829
8.8406
7.9463
8.7298
9.7286
10.401
11.221
12.075
11.397
10.689
10.061
7.6875
6.594
7.3885
8.5676
9.4469
10.449
11.408
10.811
10.288
9.9787
8.071
7.2589
8.1078
9.209
9.9667
10.88
11.786
11.154
10.605
10.266
8.3189
7.4676
8.2926
9.3795
10.123
11.021
11.904
11.255
10.682
10.325
8.3645
7.5045
8.3214
9.4022
10.144
11.047
11.935
11.28
10.705
10.345
8.3817
7.5194
8.3388
9.4278
10.169
11.059
11.944
11.292
10.718
10.364
8.4044
7.537
8.3555
9.4401
10.189
11.089
11.974
11.321
10.75
10.396
8.4332
7.569
8.3861
9.4773
10.217
11.113
12.004
11.349
10.776
10.424
8.4621
7.6017
8.42
9.5075
10.252
11.155
12.045
11.392
10.817
10.466
8.5074
7.6485
8.4661
9.5537
10.299
11.202
12.088
11.444
10.87
10.514
8.558
7.6926
8.5046
9.5961
10.341
11.234
12.121
11.471
10.894
10.542
8.5834
7.7182
8.5337
9.6164
10.349
11.238
12.126
11.472
10.891
10.526
8.5614
7.6924
8.5044
9.5851
10.317
11.206
12.09
11.432
10.845
10.482
8.517
7.642
8.4437
9.5258
10.263
11.151
12.028
11.37
10.784
10.418
8.4455
7.5683
8.3771
9.454
10.186
11.074
11.956
11.293
10.708
10.345
8.3775
7.5072
8.3106
9.3843
10.127
11.02
11.903
11.244
10.656
10.301
8.3412
7.4669
8.2778
9.3583
10.093
10.989
11.879
11.222
10.641
10.281
8.319
7.4494
8.2544
9.3329
10.076
10.974
11.865
11.214
10.629
10.272
8.3158
7.4442
8.2521
9.3354
10.076
10.974
11.867
11.215
10.636
10.281
8.3199
7.4476
8.2591
9.3411
10.083
10.977
11.867
11.213
10.637
10.286
8.3262
7.4533
8.2607
9.3437
10.086
10.982
11.875
11.228
10.646
10.289
8.3291
7.4554
8.2623
9.3436
10.088
10.98
11.872
11.22
10.637
10.287
8.331
7.4513
8.2581
9.341
10.084
10.974
11.871
11.223
10.64
10.285
8.3225
7.4505
8.2528
9.3298
10.077
10.973
11.869
11.218
10.628
10.278
8.3226
7.4417
8.2515
9.3296
10.074
10.969
11.861
11.206
10.62
10.27
8.3143
7.44
8.2507
9.3307
10.073
10.961
11.855
11.209
10.623
10.272
8.3144
7.4335
8.2408
9.3204
10.065
10.955
11.854
11.205
10.621
10.271
8.3145
7.4354
8.242
9.3196
10.066
10.958
11.85
11.204
10.62
10.269
8.3157
7.4408
8.245
9.3284
10.081
10.978
11.875
11.23
10.644
10.294
8.342
7.465
8.2725
9.351
10.094
10.992
11.885
11.232
10.642
10.285
8.3262
7.4429
8.2495
9.3354
10.082
10.973
11.868
11.217
10.629
10.274
8.3143
7.4335
8.2434
9.33
10.076
10.967
11.863
11.222
10.637
10.274
8.3101
7.4287
8.2297
9.3085
10.054
10.948
11.846
11.2
10.614
10.265
8.3062
7.423
8.2263
9.3091
10.055
10.947
11.845
11.203
10.619
10.265
8.3059
7.4198
8.2259
9.3087
10.057
10.954
11.858
11.204
10.623
10.276
8.3146
7.4302
8.2389
9.3283
10.078
10.971
11.887
11.264
10.709
10.394
8.4853
7.6505
8.5192
9.672
10.504
11.496
12.456
11.815
11.203
10.811
8.8198
7.8479
8.5779
9.5913
10.311
11.182
11.951
11.048
10.041
9.4362
7.4485
6.6618
7.6074
8.8034
9.6338
10.593
11.547
10.951
10.416
10.109
8.1848
7.3207
8.1458
9.254
10.029
10.946
11.87
11.242
10.672
10.332
8.3836
7.5011
8.3093
9.3945
10.147
11.042
11.946
11.306
10.725
10.374
8.4191
7.5312
8.3379
9.4283
10.178
11.067
11.973
11.323
10.742
10.396
8.4389
7.5502
8.3572
9.4403
10.192
11.088
11.992
11.35
10.768
10.416
8.4595
7.5737
8.3752
9.4611
10.218
11.113
12.017
11.374
10.793
10.446
8.4928
7.5994
8.4108
9.5052
10.256
11.144
12.044
11.411
10.83
10.486
8.5307
7.6399
8.445
9.5338
10.291
11.187
12.096
11.457
10.877
10.535
8.5764
7.6838
8.4945
9.584
10.338
11.236
12.147
11.504
10.92
10.576
8.618
7.7255
8.5321
9.6221
10.377
11.267
12.173
11.535
10.948
10.597
8.6368
7.7362
8.5423
9.6273
10.373
11.26
12.166
11.525
10.936
10.58
8.6169
7.7167
8.5116
9.5991
10.341
11.221
12.121
11.473
10.884
10.52
8.5538
7.6573
8.4514
9.5351
10.278
11.157
12.049
11.399
10.811
10.451
8.4815
7.5796
8.3738
9.4524
10.199
11.079
11.978
11.335
10.741
10.383
8.4212
7.5177
8.3103
9.3914
10.143
11.033
11.935
11.286
10.697
10.34
8.3773
7.4772
8.2836
9.3728
10.118
11.001
11.909
11.269
10.681
10.329
8.3688
7.4669
8.2657
9.3459
10.101
11.001
11.909
11.263
10.67
10.323
8.3654
7.4658
8.2679
9.3556
10.107
10.997
11.901
11.26
10.674
10.321
8.3616
7.4628
8.2659
9.3529
10.105
10.997
11.903
11.268
10.68
10.328
8.3687
7.4681
8.2677
9.3534
10.106
10.996
11.901
11.262
10.674
10.327
8.3651
7.4693
8.2709
9.3549
10.108
11
11.904
11.265
10.677
10.327
8.3688
7.4691
8.2677
9.3515
10.103
10.997
11.9
11.262
10.675
10.322
8.3637
7.4621
8.2626
9.3448
10.098
10.994
11.9
11.257
10.667
10.321
8.363
7.4619
8.2622
9.3449
10.097
10.986
11.889
11.253
10.665
10.312
8.3557
7.4579
8.2584
9.342
10.09
10.978
11.881
11.249
10.665
10.309
8.3486
7.4514
8.2517
9.3353
10.087
10.976
11.881
11.238
10.651
10.306
8.3481
7.4483
8.2521
9.338
10.096
10.987
11.898
11.258
10.673
10.318
8.3691
7.4698
8.271
9.351
10.11
11.01
11.917
11.27
10.678
10.322
8.3612
7.4621
8.2593
9.3457
10.097
10.993
11.894
11.25
10.665
10.308
8.3467
7.4492
8.2478
9.3306
10.087
10.981
11.885
11.244
10.657
10.31
8.3525
7.4502
8.247
9.3271
10.078
10.972
11.875
11.228
10.64
10.287
8.3265
7.4346
8.2396
9.3255
10.076
10.966
11.87
11.228
10.643
10.295
8.3355
7.4385
8.2434
9.3272
10.078
10.97
11.875
11.234
10.648
10.292
8.3344
7.4403
8.245
9.3303
10.084
10.983
11.889
11.242
10.672
10.348
8.4107
7.551
8.3997
9.5464
10.357
11.32
12.298
11.758
11.243
10.897
8.9106
7.9753
8.7503
9.7602
10.432
11.251
12.117
11.463
10.75
10.161
7.7788
6.6062
7.3679
8.5469
9.4438
10.46
11.445
10.865
10.339
10.041
8.1246
7.2739
8.1169
9.2313
10.002
10.923
11.848
11.228
10.669
10.332
8.3788
7.4979
8.3162
9.4119
10.167
11.061
11.963
11.323
10.745
10.391
8.4259
7.5412
8.3502
9.4463
10.195
11.087
11.991
11.353
10.774
10.419
8.447
7.5568
8.3633
9.4499
10.206
11.106
12.011
11.369
10.786
10.432
8.4629
7.5794
8.3899
9.4861
10.234
11.135
12.037
11.393
10.814
10.458
8.4885
7.6012
8.4127
9.5088
10.266
11.162
12.066
11.426
10.847
10.496
8.5262
7.6422
8.4503
9.546
10.303
11.204
12.111
11.473
10.892
10.537
8.5681
7.6865
8.4974
9.5967
10.355
11.256
12.166
11.519
10.94
10.585
8.6143
7.7299
8.5396
9.6442
10.399
11.293
12.196
11.547
10.968
10.613
8.633
7.7509
8.5594
9.647
10.401
11.296
12.199
11.552
10.963
10.6
8.6269
7.7375
8.5417
9.6276
10.375
11.265
12.161
11.507
10.922
10.561
8.5806
7.6829
8.4843
9.5702
10.312
11.2
12.094
11.443
10.853
10.484
8.5071
7.6106
8.4137
9.4975
10.24
11.127
12.019
11.369
10.782
10.418
8.4377
7.5503
8.3523
9.4351
10.179
11.071
11.964
11.312
10.732
10.37
8.3945
7.5042
8.3087
9.3967
10.146
11.042
11.939
11.288
10.705
10.349
8.3784
7.4944
8.2975
9.3783
10.133
11.033
11.931
11.283
10.701
10.341
8.3719
7.4869
8.2922
9.3834
10.132
11.032
11.932
11.28
10.7
10.342
8.3684
7.4912
8.2952
9.3807
10.132
11.032
11.932
11.285
10.702
10.342
8.3684
7.4881
8.2973
9.3808
10.137
11.043
11.94
11.287
10.703
10.343
8.368
7.4905
8.2954
9.381
10.137
11.05
11.943
11.287
10.702
10.342
8.3692
7.4891
8.2964
9.382
10.134
11.042
11.938
11.283
10.697
10.337
8.3614
7.482
8.2924
9.3784
10.13
11.038
11.934
11.278
10.694
10.331
8.3555
7.4818
8.2924
9.3833
10.133
11.036
11.926
11.27
10.692
10.327
8.346
7.474
8.2843
9.3642
10.116
11.026
11.92
11.271
10.687
10.326
8.3475
7.4717
8.2824
9.3685
10.124
11.031
11.924
11.264
10.686
10.326
8.3409
7.4629
8.2824
9.3793
10.128
11.039
11.938
11.286
10.706
10.334
8.3521
7.4829
8.3041
9.3969
10.147
11.054
11.944
11.292
10.707
10.335
8.3452
7.4703
8.2781
9.3673
10.124
11.039
11.932
11.271
10.689
10.316
8.3263
7.4512
8.2676
9.3605
10.114
11.025
11.921
11.266
10.687
10.321
8.3316
7.4564
8.2662
9.3516
10.102
11.013
11.905
11.245
10.666
10.294
8.3055
7.4393
8.2563
9.3469
10.098
